0.000000000000000000e+00
0.000000000000000000e+00
0.000000000000000000e+00
0.000000000000000000e+00
0.000000000000000000e+00
0.000000000000000000e+00
0.000000000000000000e+00
0.000000000000000000e+00
0.000000000000000000e+00
0.000000000000000000e+00
0.000000000000000000e+00
0.000000000000000000e+00
0.000000000000000000e+00
0.000000000000000000e+00
0.000000000000000000e+00
0.000000000000000000e+00
0.000000000000000000e+00
0.000000000000000000e+00
0.000000000000000000e+00
0.000000000000000000e+00
0.000000000000000000e+00
0.000000000000000000e+00
0.000000000000000000e+00
0.000000000000000000e+00
0.000000000000000000e+00
0.000000000000000000e+00
0.000000000000000000e+00
0.000000000000000000e+00
0.000000000000000000e+00
0.000000000000000000e+00
0.000000000000000000e+00
0.000000000000000000e+00
0.000000000000000000e+00
0.000000000000000000e+00
0.000000000000000000e+00
0.000000000000000000e+00
0.000000000000000000e+00
0.000000000000000000e+00
0.000000000000000000e+00
0.000000000000000000e+00
0.000000000000000000e+00
0.000000000000000000e+00
0.000000000000000000e+00
0.000000000000000000e+00
0.000000000000000000e+00
0.000000000000000000e+00
0.000000000000000000e+00
0.000000000000000000e+00
0.000000000000000000e+00
0.000000000000000000e+00
0.000000000000000000e+00
0.000000000000000000e+00
0.000000000000000000e+00
0.000000000000000000e+00
0.000000000000000000e+00
0.000000000000000000e+00
0.000000000000000000e+00
0.000000000000000000e+00
0.000000000000000000e+00
0.000000000000000000e+00
0.000000000000000000e+00
0.000000000000000000e+00
0.000000000000000000e+00
0.000000000000000000e+00
0.000000000000000000e+00
0.000000000000000000e+00
0.000000000000000000e+00
0.000000000000000000e+00
0.000000000000000000e+00
0.000000000000000000e+00
0.000000000000000000e+00
0.000000000000000000e+00
0.000000000000000000e+00
0.000000000000000000e+00
0.000000000000000000e+00
0.000000000000000000e+00
0.000000000000000000e+00
0.000000000000000000e+00
0.000000000000000000e+00
0.000000000000000000e+00
0.000000000000000000e+00
0.000000000000000000e+00
0.000000000000000000e+00
0.000000000000000000e+00
0.000000000000000000e+00
0.000000000000000000e+00
0.000000000000000000e+00
0.000000000000000000e+00
0.000000000000000000e+00
0.000000000000000000e+00
0.000000000000000000e+00
0.000000000000000000e+00
0.000000000000000000e+00
0.000000000000000000e+00
0.000000000000000000e+00
0.000000000000000000e+00
0.000000000000000000e+00
0.000000000000000000e+00
0.000000000000000000e+00
0.000000000000000000e+00
0.000000000000000000e+00
0.000000000000000000e+00
0.000000000000000000e+00
0.000000000000000000e+00
0.000000000000000000e+00
0.000000000000000000e+00
0.000000000000000000e+00
0.000000000000000000e+00
0.000000000000000000e+00
0.000000000000000000e+00
0.000000000000000000e+00
0.000000000000000000e+00
0.000000000000000000e+00
0.000000000000000000e+00
0.000000000000000000e+00
0.000000000000000000e+00
0.000000000000000000e+00
0.000000000000000000e+00
0.000000000000000000e+00
0.000000000000000000e+00
0.000000000000000000e+00
0.000000000000000000e+00
0.000000000000000000e+00
0.000000000000000000e+00
0.000000000000000000e+00
0.000000000000000000e+00
0.000000000000000000e+00
0.000000000000000000e+00
0.000000000000000000e+00
0.000000000000000000e+00
0.000000000000000000e+00
0.000000000000000000e+00
0.000000000000000000e+00
0.000000000000000000e+00
0.000000000000000000e+00
0.000000000000000000e+00
0.000000000000000000e+00
0.000000000000000000e+00
0.000000000000000000e+00
0.000000000000000000e+00
0.000000000000000000e+00
0.000000000000000000e+00
0.000000000000000000e+00
0.000000000000000000e+00
0.000000000000000000e+00
0.000000000000000000e+00
0.000000000000000000e+00
0.000000000000000000e+00
0.000000000000000000e+00
0.000000000000000000e+00
0.000000000000000000e+00
0.000000000000000000e+00
0.000000000000000000e+00
0.000000000000000000e+00
0.000000000000000000e+00
0.000000000000000000e+00
0.000000000000000000e+00
0.000000000000000000e+00
0.000000000000000000e+00
0.000000000000000000e+00
0.000000000000000000e+00
0.000000000000000000e+00
0.000000000000000000e+00
0.000000000000000000e+00
0.000000000000000000e+00
0.000000000000000000e+00
0.000000000000000000e+00
0.000000000000000000e+00
0.000000000000000000e+00
0.000000000000000000e+00
0.000000000000000000e+00
0.000000000000000000e+00
0.000000000000000000e+00
0.000000000000000000e+00
0.000000000000000000e+00
0.000000000000000000e+00
0.000000000000000000e+00
0.000000000000000000e+00
0.000000000000000000e+00
0.000000000000000000e+00
0.000000000000000000e+00
0.000000000000000000e+00
0.000000000000000000e+00
0.000000000000000000e+00
0.000000000000000000e+00
0.000000000000000000e+00
0.000000000000000000e+00
0.000000000000000000e+00
0.000000000000000000e+00
0.000000000000000000e+00
0.000000000000000000e+00
0.000000000000000000e+00
0.000000000000000000e+00
0.000000000000000000e+00
0.000000000000000000e+00
0.000000000000000000e+00
0.000000000000000000e+00
0.000000000000000000e+00
0.000000000000000000e+00
0.000000000000000000e+00
0.000000000000000000e+00
0.000000000000000000e+00
0.000000000000000000e+00
0.000000000000000000e+00
0.000000000000000000e+00
0.000000000000000000e+00
0.000000000000000000e+00
0.000000000000000000e+00
0.000000000000000000e+00
0.000000000000000000e+00
0.000000000000000000e+00
0.000000000000000000e+00
0.000000000000000000e+00
0.000000000000000000e+00
0.000000000000000000e+00
0.000000000000000000e+00
0.000000000000000000e+00
0.000000000000000000e+00
0.000000000000000000e+00
0.000000000000000000e+00
0.000000000000000000e+00
0.000000000000000000e+00
0.000000000000000000e+00
0.000000000000000000e+00
0.000000000000000000e+00
0.000000000000000000e+00
0.000000000000000000e+00
0.000000000000000000e+00
0.000000000000000000e+00
0.000000000000000000e+00
0.000000000000000000e+00
0.000000000000000000e+00
0.000000000000000000e+00
0.000000000000000000e+00
0.000000000000000000e+00
0.000000000000000000e+00
0.000000000000000000e+00
0.000000000000000000e+00
0.000000000000000000e+00
0.000000000000000000e+00
0.000000000000000000e+00
0.000000000000000000e+00
0.000000000000000000e+00
0.000000000000000000e+00
0.000000000000000000e+00
-1.192092895507812500e-07
1.192092895507812500e-07
-1.192092895507812500e-07
2.384185791015625000e-07
-3.576278686523437500e-07
3.576278686523437500e-07
-4.768371582031250000e-07
5.960464477539062500e-07
-8.344650268554687500e-07
9.536743164062500000e-07
-1.192092895507812500e-06
1.549720764160156250e-06
-1.907348632812500000e-06
2.384185791015625000e-06
-3.457069396972656250e-06
5.841255187988281250e-06
-2.181529998779296875e-05
-1.101493835449218750e-04
-1.416206359863281250e-04
-1.759529113769531250e-04
-2.068281173706054688e-04
-2.393722534179687500e-04
-2.728700637817382812e-04
-3.043413162231445312e-04
-3.303289413452148438e-04
-3.643035888671875000e-04
-3.937482833862304688e-04
-4.236698150634765625e-04
-4.632472991943359375e-04
-4.862546920776367188e-04
-5.244016647338867188e-04
-5.538463592529296875e-04
-5.799531936645507812e-04
-6.177425384521484375e-04
-6.386041641235351562e-04
-6.806850433349609375e-04
-7.148981094360351562e-04
-7.146596908569335938e-04
-7.383823394775390625e-04
-7.766485214233398438e-04
-8.047819137573242188e-04
-8.167028427124023438e-04
-8.695125579833984375e-04
-8.952617645263671875e-04
-9.160041809082031250e-04
-9.535551071166992188e-04
-9.640455245971679688e-04
-9.994506835937500000e-04
-1.030683517456054688e-03
-1.064658164978027344e-03
-1.082420349121093750e-03
-1.137733459472656250e-03
-1.157045364379882812e-03
-1.185894012451171875e-03
-1.212358474731445312e-03
-1.229286193847656250e-03
-1.267433166503906250e-03
-1.293540000915527344e-03
-1.345396041870117188e-03
-1.338362693786621094e-03
-1.389026641845703125e-03
-1.407861709594726562e-03
-1.439809799194335938e-03
-1.471161842346191406e-03
-1.488447189331054688e-03
-1.504302024841308594e-03
-1.526594161987304688e-03
-1.561164855957031250e-03
-1.568078994750976562e-03
-1.615047454833984375e-03
-1.644015312194824219e-03
-1.690030097961425781e-03
-1.733541488647460938e-03
-1.732945442199707031e-03
-1.798987388610839844e-03
-1.771807670593261719e-03
-1.803755760192871094e-03
-1.848578453063964844e-03
-1.871109008789062500e-03
-1.930117607116699219e-03
-1.921892166137695312e-03
-1.951813697814941406e-03
-1.928687095642089844e-03
-1.982808113098144531e-03
-1.991987228393554688e-03
-2.047538757324218750e-03
-2.142310142517089844e-03
-2.080440521240234375e-03
-2.098560333251953125e-03
-2.162814140319824219e-03
-2.161502838134765625e-03
-2.204179763793945312e-03
-2.260804176330566406e-03
-2.284169197082519531e-03
-2.281188964843750000e-03
-2.293705940246582031e-03
-2.359747886657714844e-03
-2.384424209594726562e-03
-2.379655838012695312e-03
-2.427816390991210938e-03
-2.387762069702148438e-03
-2.372384071350097656e-03
-2.303719520568847656e-03
-2.292037010192871094e-03
-2.334833145141601562e-03
-2.319693565368652344e-03
-2.314329147338867188e-03
-2.327203750610351562e-03
-2.256751060485839844e-03
-2.300262451171875000e-03
-2.262115478515625000e-03
-2.273321151733398438e-03
-2.314448356628417969e-03
-2.294659614562988281e-03
-2.334356307983398438e-03
-2.256393432617187500e-03
-2.272725105285644531e-03
-2.259850502014160156e-03
-2.235531806945800781e-03
-2.190470695495605469e-03
-2.273678779602050781e-03
-2.263307571411132812e-03
-2.235412597656250000e-03
-2.261281013488769531e-03
-2.194404602050781250e-03
-2.194046974182128906e-03
-2.170920372009277344e-03
-2.202391624450683594e-03
-2.180695533752441406e-03
-2.171993255615234375e-03
-2.186179161071777344e-03
-2.197027206420898438e-03
-2.224683761596679688e-03
-2.316594123840332031e-03
-2.322554588317871094e-03
-2.207040786743164062e-03
-2.239942550659179688e-03
-2.119302749633789062e-03
-2.012729644775390625e-03
-2.005219459533691406e-03
-1.982450485229492188e-03
-1.985311508178710938e-03
-1.912713050842285156e-03
-1.939535140991210938e-03
-1.859188079833984375e-03
-1.736640930175781250e-03
-1.785397529602050781e-03
-1.695871353149414062e-03
-1.699447631835937500e-03
-1.643300056457519531e-03
-1.739025115966796875e-03
-1.680135726928710938e-03
-1.481413841247558594e-03
-1.538753509521484375e-03
-1.567721366882324219e-03
-1.590609550476074219e-03
-1.501798629760742188e-03
-1.622557640075683594e-03
-1.556158065795898438e-03
-1.335740089416503906e-03
-1.373887062072753906e-03
-1.423358917236328125e-03
-1.424670219421386719e-03
-1.321434974670410156e-03
-1.366257667541503906e-03
-1.307725906372070312e-03
-1.146793365478515625e-03
-1.117706298828125000e-03
-1.108407974243164062e-03
-1.083731651306152344e-03
-1.011967658996582031e-03
-1.055240631103515625e-03
-1.062750816345214844e-03
-8.124113082885742188e-04
-8.152723312377929688e-04
-8.733272552490234375e-04
-8.870363235473632812e-04
-8.660554885864257812e-04
-9.350776672363281250e-04
-9.528398513793945312e-04
-7.984638214111328125e-04
-8.748769760131835938e-04
-9.057521820068359375e-04
-8.391141891479492188e-04
-7.988214492797851562e-04
-9.047985076904296875e-04
-8.765459060668945312e-04
-6.796121597290039062e-04
-6.520748138427734375e-04
-6.514787673950195312e-04
-6.004571914672851562e-04
-5.214214324951171875e-04
-5.695819854736328125e-04
-6.093978881835937500e-04
-3.390312194824218750e-04
-2.797842025756835938e-04
-3.662109375000000000e-04
-3.451108932495117188e-04
-3.734827041625976562e-04
-3.380775451660156250e-04
-3.582239151000976562e-04
-2.413988113403320312e-04
-2.664327621459960938e-04
-3.677606582641601562e-04
-2.799034118652343750e-04
-2.411603927612304688e-04
-3.058910369873046875e-04
-4.168748855590820312e-04
-2.804994583129882812e-04
-1.696348190307617188e-04
-1.764297485351562500e-04
-1.064538955688476562e-04
-8.106231689453125000e-05
-1.146793365478515625e-04
-1.683235168457031250e-04
7.474422454833984375e-05
2.444982528686523438e-04
1.667737960815429688e-04
1.975297927856445312e-04
2.175569534301757812e-04
2.077817916870117188e-04
1.630783081054687500e-04
3.325939178466796875e-04
3.261566162109375000e-04
1.984834671020507812e-04
2.683401107788085938e-04
3.082752227783203125e-04
3.117322921752929688e-04
2.207756042480468750e-04
2.568960189819335938e-04
3.740787506103515625e-04
2.539157867431640625e-04
3.314018249511718750e-04
4.113912582397460938e-04
3.273487091064453125e-04
2.825260162353515625e-04
3.796815872192382812e-04
4.489421844482421875e-04
4.380941390991210938e-04
4.677772521972656250e-04
4.817247390747070312e-04
4.427433013916015625e-04
4.315376281738281250e-04
4.750490188598632812e-04
6.062984466552734375e-04
5.253553390502929688e-04
4.549026489257812500e-04
4.835128784179687500e-04
4.941225051879882812e-04
5.149841308593750000e-04
5.286931991577148438e-04
5.142688751220703125e-04
5.462169647216796875e-04
4.984140396118164062e-04
5.319118499755859375e-04
4.909038543701171875e-04
4.557371139526367188e-04
5.177259445190429688e-04
6.705522537231445312e-04
6.214380264282226562e-04
6.260871887207031250e-04
6.282329559326171875e-04
5.979537963867187500e-04
6.014108657836914062e-04
6.294250488281250000e-04
6.902217864990234375e-04
6.201267242431640625e-04
6.408691406250000000e-04
6.674528121948242188e-04
6.583929061889648438e-04
6.330013275146484375e-04
6.614923477172851562e-04
7.337331771850585938e-04
7.106065750122070312e-04
7.412433624267578125e-04
6.933212280273437500e-04
6.980895996093750000e-04
7.013082504272460938e-04
7.048845291137695312e-04
7.182359695434570312e-04
6.971359252929687500e-04
6.507635116577148438e-04
7.239580154418945312e-04
7.172822952270507812e-04
6.778240203857421875e-04
7.290840148925781250e-04
7.343292236328125000e-04
6.850957870483398438e-04
6.586313247680664062e-04
6.625652313232421875e-04
7.201433181762695312e-04
6.657838821411132812e-04
6.972551345825195312e-04
6.681680679321289062e-04
6.506443023681640625e-04
5.923509597778320312e-04
6.192922592163085938e-04
6.984472274780273438e-04
6.392002105712890625e-04
5.822181701660156250e-04
6.721019744873046875e-04
5.658864974975585938e-04
5.099773406982421875e-04
5.689859390258789062e-04
5.787611007690429688e-04
5.331039428710937500e-04
5.369186401367187500e-04
6.266832351684570312e-04
5.815029144287109375e-04
4.891157150268554688e-04
5.373954772949218750e-04
6.222724914550781250e-04
5.309581756591796875e-04
5.133152008056640625e-04
5.400180816650390625e-04
3.849267959594726562e-04
3.056526184082031250e-04
3.600120544433593750e-04
4.954338073730468750e-04
4.556179046630859375e-04
4.535913467407226562e-04
4.405975341796875000e-04
3.894567489624023438e-04
4.310607910156250000e-04
5.154609680175781250e-04
4.894733428955078125e-04
4.472732543945312500e-04
4.280805587768554688e-04
4.510879516601562500e-04
4.037618637084960938e-04
3.582239151000976562e-04
3.108978271484375000e-04
2.638101577758789062e-04
3.602504730224609375e-04
3.685951232910156250e-04
3.836154937744140625e-04
2.151727676391601562e-04
1.894235610961914062e-04
2.188682556152343750e-04
3.132820129394531250e-04
2.954006195068359375e-04
1.254081726074218750e-04
1.569986343383789062e-04
1.950263977050781250e-04
1.996755599975585938e-04
1.683235168457031250e-04
6.866455078125000000e-05
8.225440979003906250e-05
1.121759414672851562e-04
2.920627593994140625e-04
1.500844955444335938e-04
-5.555152893066406250e-05
-7.891654968261718750e-05
6.079673767089843750e-06
1.292228698730468750e-04
2.706050872802734375e-05
7.760524749755859375e-05
-2.447366714477539062e-04
-3.759860992431640625e-04
-1.239776611328125000e-04
-2.270936965942382812e-04
-2.714395523071289062e-04
-3.906488418579101562e-04
-1.884698867797851562e-04
-2.830028533935546875e-04
-3.597736358642578125e-04
-3.520250320434570312e-04
-4.659891128540039062e-04
-4.866123199462890625e-04
-3.933906555175781250e-04
-2.857446670532226562e-04
-4.385709762573242188e-04
-6.260871887207031250e-04
-4.881620407104492188e-04
-5.221366882324218750e-04
-4.345178604125976562e-04
-4.774332046508789062e-04
-5.395412445068359375e-04
-7.168054580688476562e-04
-7.561445236206054688e-04
-5.244016647338867188e-04
-6.321668624877929688e-04
-7.047653198242187500e-04
-7.426738739013671875e-04
-6.802082061767578125e-04
-6.231069564819335938e-04
-8.594989776611328125e-04
-9.204149246215820312e-04
-1.031041145324707031e-03
-8.946657180786132812e-04
-8.223056793212890625e-04
-7.903575897216796875e-04
-9.903907775878906250e-04
-1.239418983459472656e-03
-1.060843467712402344e-03
-8.840560913085937500e-04
-7.935762405395507812e-04
-1.084685325622558594e-03
-1.286983489990234375e-03
-1.153945922851562500e-03
-1.105666160583496094e-03
-9.231567382812500000e-04
-1.592993736267089844e-03
-1.797080039978027344e-03
-1.850247383117675781e-03
-1.142024993896484375e-03
-8.974075317382812500e-04
-1.363754272460937500e-03
-1.460194587707519531e-03
-1.499772071838378906e-03
-1.300692558288574219e-03
-1.200556755065917969e-03
-1.267433166503906250e-03
-1.404404640197753906e-03
-1.718878746032714844e-03
-1.490354537963867188e-03
-1.390099525451660156e-03
-1.495122909545898438e-03
-1.579880714416503906e-03
-1.536607742309570312e-03
-1.516580581665039062e-03
-1.711726188659667969e-03
-1.754164695739746094e-03
-1.774311065673828125e-03
-1.815676689147949219e-03
-1.617550849914550781e-03
-1.653552055358886719e-03
-1.739382743835449219e-03
-1.931309700012207031e-03
-1.840233802795410156e-03
-1.736402511596679688e-03
-1.748919486999511719e-03
-1.826643943786621094e-03
-1.992702484130859375e-03
-1.993298530578613281e-03
-1.826405525207519531e-03
-1.680850982666015625e-03
-1.732707023620605469e-03
-1.869916915893554688e-03
-1.805305480957031250e-03
-1.881241798400878906e-03
-1.677513122558593750e-03
-1.726508140563964844e-03
-1.857757568359375000e-03
-1.915216445922851562e-03
-1.872539520263671875e-03
-1.759171485900878906e-03
-1.785993576049804688e-03
-1.789689064025878906e-03
-1.859784126281738281e-03
-1.808524131774902344e-03
-1.691102981567382812e-03
-1.767516136169433594e-03
-1.802086830139160156e-03
-1.886248588562011719e-03
-1.801252365112304688e-03
-1.737117767333984375e-03
-1.700639724731445312e-03
-1.692891120910644531e-03
-1.843690872192382812e-03
-1.776218414306640625e-03
-1.704335212707519531e-03
-1.740932464599609375e-03
-1.742362976074218750e-03
-1.720905303955078125e-03
-1.605391502380371094e-03
-1.688957214355468750e-03
-1.693964004516601562e-03
-1.735448837280273438e-03
-1.726865768432617188e-03
-1.615524291992187500e-03
-1.591801643371582031e-03
-1.684427261352539062e-03
-1.780152320861816406e-03
-1.683712005615234375e-03
-1.611471176147460938e-03
-1.622319221496582031e-03
-1.642107963562011719e-03
-1.824021339416503906e-03
-1.806378364562988281e-03
-1.803040504455566406e-03
-1.679539680480957031e-03
-1.672863960266113281e-03
-1.760244369506835938e-03
-1.750826835632324219e-03
-1.751303672790527344e-03
-1.745700836181640625e-03
-1.725673675537109375e-03
-1.644968986511230469e-03
-1.678109169006347656e-03
-1.745939254760742188e-03
-1.636981964111328125e-03
-1.687645912170410156e-03
-1.683950424194335938e-03
-1.681566238403320312e-03
-1.657128334045410156e-03
-1.675605773925781250e-03
-1.666307449340820312e-03
-1.657247543334960938e-03
-1.646637916564941406e-03
-1.656413078308105469e-03
-1.643657684326171875e-03
-1.630783081054687500e-03
-1.636266708374023438e-03
-1.607179641723632812e-03
-1.639962196350097656e-03
-1.633882522583007812e-03
-1.616835594177246094e-03
-1.635670661926269531e-03
-1.603245735168457031e-03
-1.618981361389160156e-03
-1.626253128051757812e-03
-1.558899879455566406e-03
-1.549363136291503906e-03
-1.539468765258789062e-03
-1.564741134643554688e-03
-1.564741134643554688e-03
-1.537322998046875000e-03
-1.602649688720703125e-03
-1.537203788757324219e-03
-1.480698585510253906e-03
-1.576066017150878906e-03
-1.536488533020019531e-03
-1.541733741760253906e-03
-1.464366912841796875e-03
-1.490831375122070312e-03
-1.511812210083007812e-03
-1.486539840698242188e-03
-1.461267471313476562e-03
-1.462340354919433594e-03
-1.507520675659179688e-03
-1.498341560363769531e-03
-1.439929008483886719e-03
-1.462578773498535156e-03
-1.519322395324707031e-03
-1.487851142883300781e-03
-1.476168632507324219e-03
-1.490116119384765625e-03
-1.461029052734375000e-03
-1.442670822143554688e-03
-1.489639282226562500e-03
-1.413226127624511719e-03
-1.462697982788085938e-03
-1.425385475158691406e-03
-1.413345336914062500e-03
-1.415371894836425781e-03
-1.400232315063476562e-03
-1.429438591003417969e-03
-1.430511474609375000e-03
-1.392841339111328125e-03
-1.397490501403808594e-03
-1.379728317260742188e-03
-1.408100128173828125e-03
-1.382350921630859375e-03
-1.355051994323730469e-03
-1.348614692687988281e-03
-1.312971115112304688e-03
-1.324057579040527344e-03
-1.365542411804199219e-03
-1.376390457153320312e-03
-1.415610313415527344e-03
-1.334190368652343750e-03
-1.351118087768554688e-03
-1.341342926025390625e-03
-1.377940177917480469e-03
-1.419901847839355469e-03
-1.312613487243652344e-03
-1.342892646789550781e-03
-1.382589340209960938e-03
-1.364111900329589844e-03
-1.360654830932617188e-03
-1.358866691589355469e-03
-1.322269439697265625e-03
-1.341223716735839844e-03
-1.313686370849609375e-03
-1.275539398193359375e-03
-1.286387443542480469e-03
-1.229405403137207031e-03
-1.197695732116699219e-03
-1.251220703125000000e-03
-1.248717308044433594e-03
-1.250386238098144531e-03
-1.290798187255859375e-03
-1.193881034851074219e-03
-1.230239868164062500e-03
-1.261234283447265625e-03
-1.188039779663085938e-03
-1.193404197692871094e-03
-1.222610473632812500e-03
-1.245141029357910156e-03
-1.221776008605957031e-03
-1.175642013549804688e-03
-1.183390617370605469e-03
-1.190662384033203125e-03
-1.186966896057128906e-03
-1.145243644714355469e-03
-1.124143600463867188e-03
-1.146674156188964844e-03
-1.158237457275390625e-03
-1.148939132690429688e-03
-1.148343086242675781e-03
-1.174330711364746094e-03
-1.125097274780273438e-03
-1.147866249084472656e-03
-1.142621040344238281e-03
-1.091837882995605469e-03
-1.191616058349609375e-03
-1.198291778564453125e-03
-1.130461692810058594e-03
-1.151204109191894531e-03
-1.080274581909179688e-03
-1.070976257324218750e-03
-1.048922538757324219e-03
-1.084327697753906250e-03
-1.076936721801757812e-03
-1.070499420166015625e-03
-1.087307929992675781e-03
-1.073360443115234375e-03
-1.062035560607910156e-03
-1.066803932189941406e-03
-1.054644584655761719e-03
-1.001954078674316406e-03
-1.052021980285644531e-03
-1.020312309265136719e-03
-1.065373420715332031e-03
-1.007318496704101562e-03
-9.511709213256835938e-04
-1.046180725097656250e-03
-1.024365425109863281e-03
-9.989738464355468750e-04
-9.933710098266601562e-04
-9.609460830688476562e-04
-9.789466857910156250e-04
-1.021385192871093750e-03
-1.015663146972656250e-03
-1.065373420715332031e-03
-1.030325889587402344e-03
-9.826421737670898438e-04
-9.222030639648437500e-04
-9.676218032836914062e-04
-9.703636169433593750e-04
-9.815692901611328125e-04
-9.677410125732421875e-04
-9.605884552001953125e-04
-9.346008300781250000e-04
-9.183883666992187500e-04
-8.938312530517578125e-04
-9.181499481201171875e-04
-9.785890579223632812e-04
-9.726285934448242188e-04
-9.565353393554687500e-04
-9.043216705322265625e-04
-9.570121765136718750e-04
-8.996725082397460938e-04
-8.765459060668945312e-04
-8.454322814941406250e-04
-8.872747421264648438e-04
-9.369850158691406250e-04
-9.077787399291992188e-04
-8.828639984130859375e-04
-9.212493896484375000e-04
-8.645057678222656250e-04
-8.223056793212890625e-04
-8.651018142700195312e-04
-9.535551071166992188e-04
-8.878707885742187500e-04
-9.577274322509765625e-04
-8.935928344726562500e-04
-8.350610733032226562e-04
-8.066892623901367188e-04
-8.087158203125000000e-04
-9.285211563110351562e-04
-8.914470672607421875e-04
-9.206533432006835938e-04
-8.065700531005859375e-04
-9.276866912841796875e-04
-8.031129837036132812e-04
-7.671117782592773438e-04
-8.136034011840820312e-04
-8.728504180908203125e-04
-8.867979049682617188e-04
-8.417367935180664062e-04
-8.764266967773437500e-04
-7.826089859008789062e-04
-7.207393646240234375e-04
-7.456541061401367188e-04
-7.809400558471679688e-04
-7.240772247314453125e-04
-7.991790771484375000e-04
-7.736682891845703125e-04
-7.652044296264648438e-04
-7.257461547851562500e-04
-6.963014602661132812e-04
-6.664991378784179688e-04
-7.704496383666992188e-04
-7.767677307128906250e-04
-7.669925689697265625e-04
-8.227825164794921875e-04
-7.710456848144531250e-04
-7.735490798950195312e-04
-8.069276809692382812e-04
-9.285211563110351562e-04
-9.087324142456054688e-04
-9.869337081909179688e-04
-9.921789169311523438e-04
-1.000404357910156250e-03
-9.275674819946289062e-04
-8.646249771118164062e-04
-7.572174072265625000e-04
-7.089376449584960938e-04
-7.251501083374023438e-04
-6.893873214721679688e-04
-6.756782531738281250e-04
-4.682540893554687500e-04
-3.459453582763671875e-04
-1.733303070068359375e-04
-5.841255187988281250e-06
7.355213165283203125e-05
2.098083496093750000e-05
-3.325939178466796875e-05
1.362562179565429688e-04
3.604888916015625000e-04
4.992485046386718750e-04
5.859136581420898438e-04
6.916522979736328125e-04
5.249977111816406250e-04
9.906291961669921875e-05
1.066923141479492188e-04
1.658201217651367188e-04
1.826286315917968750e-04
2.059936523437500000e-04
1.677274703979492188e-04
-1.037120819091796875e-04
-5.677938461303710938e-04
-7.455348968505859375e-04
-8.372068405151367188e-04
-1.112580299377441406e-03
-1.139044761657714844e-03
-1.358985900878906250e-03
-1.748919486999511719e-03
-2.029657363891601562e-03
-2.382397651672363281e-03
-2.598047256469726562e-03
-3.062605857849121094e-03
-3.213405609130859375e-03
-3.403663635253906250e-03
-3.858566284179687500e-03
-3.533482551574707031e-03
-3.618240356445312500e-03
-3.852009773254394531e-03
-4.431962966918945312e-03
-4.421114921569824219e-03
-4.585504531860351562e-03
-4.791021347045898438e-03
-1.937270164489746094e-03
-1.539468765258789062e-03
-1.731395721435546875e-03
-2.069592475891113281e-03
-2.276062965393066406e-03
-2.221822738647460938e-03
-2.574563026428222656e-03
6.393194198608398438e-04
1.471877098083496094e-03
9.586811065673828125e-04
6.496906280517578125e-04
1.281499862670898438e-04
1.347064971923828125e-05
-7.238388061523437500e-04
2.873778343200683594e-03
4.228234291076660156e-03
3.346681594848632812e-03
3.191471099853515625e-03
2.342104911804199219e-03
2.172827720642089844e-03
1.139521598815917969e-03
4.788756370544433594e-03
6.650924682617187500e-03
5.501747131347656250e-03
5.374312400817871094e-03
4.132747650146484375e-03
3.899216651916503906e-03
2.515554428100585938e-03
5.807518959045410156e-03
8.217692375183105469e-03
6.624341011047363281e-03
6.416678428649902344e-03
4.873275756835937500e-03
4.418373107910156250e-03
2.782583236694335938e-03
5.359888076782226562e-03
8.311033248901367188e-03
6.645560264587402344e-03
6.473660469055175781e-03
4.989147186279296875e-03
4.651069641113281250e-03
3.124833106994628906e-03
5.343914031982421875e-03
9.035825729370117188e-03
7.490396499633789062e-03
7.605314254760742188e-03
6.542682647705078125e-03
6.433486938476562500e-03
5.365490913391113281e-03
7.166385650634765625e-03
1.163649559020996094e-02
1.063776016235351562e-02
1.081144809722900391e-02
1.034927368164062500e-02
1.050543785095214844e-02
9.776949882507324219e-03
1.124191284179687500e-02
1.638412475585937500e-02
1.586246490478515625e-02
1.603853702545166016e-02
1.597368717193603516e-02
1.621115207672119141e-02
1.586055755615234375e-02
1.685047149658203125e-02
2.232992649078369141e-02
2.255129814147949219e-02
2.284181118011474609e-02
2.331686019897460938e-02
2.370274066925048828e-02
2.391898632049560547e-02
2.476835250854492188e-02
3.066062927246093750e-02
3.160524368286132812e-02
3.194487094879150391e-02
3.300118446350097656e-02
3.343749046325683594e-02
3.401529788970947266e-02
3.456866741180419922e-02
4.056334495544433594e-02
4.209291934967041016e-02
4.219353199005126953e-02
4.327654838562011719e-02
4.337561130523681641e-02
4.391694068908691406e-02
4.406905174255371094e-02
4.969549179077148438e-02
5.158162117004394531e-02
5.131208896636962891e-02
5.227613449096679688e-02
5.194020271301269531e-02
5.238699913024902344e-02
5.204975605010986328e-02
5.744540691375732422e-02
5.978524684906005859e-02
5.904066562652587891e-02
5.977916717529296875e-02
5.913197994232177734e-02
5.952227115631103516e-02
5.884397029876708984e-02
6.365132331848144531e-02
6.660103797912597656e-02
6.550049781799316406e-02
6.593322753906250000e-02
6.530654430389404297e-02
6.576442718505859375e-02
6.495320796966552734e-02
6.917333602905273438e-02
7.282102108001708984e-02
7.163548469543457031e-02
7.183361053466796875e-02
7.132220268249511719e-02
7.154858112335205078e-02
7.061362266540527344e-02
7.365894317626953125e-02
7.717633247375488281e-02
7.600247859954833984e-02
7.580780982971191406e-02
7.536280155181884766e-02
7.518029212951660156e-02
7.429134845733642578e-02
7.619810104370117188e-02
7.931041717529296875e-02
7.862651348114013672e-02
7.865571975708007812e-02
7.861018180847167969e-02
7.837045192718505859e-02
7.777142524719238281e-02
7.873439788818359375e-02
8.027124404907226562e-02
8.000040054321289062e-02
8.009552955627441406e-02
8.015775680541992188e-02
7.949316501617431641e-02
7.928943634033203125e-02
7.823443412780761719e-02
7.516849040985107422e-02
7.483124732971191406e-02
7.476842403411865234e-02
7.458758354187011719e-02
7.376718521118164062e-02
7.380414009094238281e-02
7.250630855560302734e-02
6.738054752349853516e-02
6.673765182495117188e-02
6.692159175872802734e-02
6.674087047576904297e-02
6.636619567871093750e-02
6.685066223144531250e-02
6.608653068542480469e-02
5.997002124786376953e-02
5.897426605224609375e-02
5.948197841644287109e-02
5.917608737945556641e-02
5.918109416961669922e-02
5.968332290649414062e-02
5.959689617156982422e-02
5.323302745819091797e-02
5.167555809020996094e-02
5.234563350677490234e-02
5.203986167907714844e-02
5.241942405700683594e-02
5.257594585418701172e-02
5.339431762695312500e-02
4.739749431610107422e-02
4.516804218292236328e-02
4.612565040588378906e-02
4.563593864440917969e-02
4.627406597137451172e-02
4.607129096984863281e-02
4.719650745391845703e-02
4.174327850341796875e-02
3.880238533020019531e-02
3.973305225372314453e-02
3.915154933929443359e-02
3.974807262420654297e-02
3.911447525024414062e-02
4.031372070312500000e-02
3.532493114471435547e-02
3.163063526153564453e-02
3.249073028564453125e-02
3.169953823089599609e-02
3.218328952789306641e-02
3.120541572570800781e-02
3.245794773101806641e-02
2.814614772796630859e-02
2.387881278991699219e-02
2.485501766204833984e-02
2.415037155151367188e-02
2.475571632385253906e-02
2.366936206817626953e-02
2.500283718109130859e-02
2.154123783111572266e-02
1.682853698730468750e-02
1.781165599822998047e-02
1.728129386901855469e-02
1.802814006805419922e-02
1.704835891723632812e-02
1.803052425384521484e-02
1.524198055267333984e-02
9.875059127807617188e-03
1.077532768249511719e-02
1.028001308441162109e-02
1.088595390319824219e-02
1.002001762390136719e-02
1.074647903442382812e-02
8.527040481567382812e-03
2.610683441162109375e-03
3.221154212951660156e-03
2.785444259643554688e-03
3.227710723876953125e-03
2.571821212768554688e-03
3.019928932189941406e-03
1.336574554443359375e-03
-4.828333854675292969e-03
-4.526376724243164062e-03
-4.685282707214355469e-03
-4.310846328735351562e-03
-4.504442214965820312e-03
-4.245638847351074219e-03
-5.336284637451171875e-03
-1.157438755035400391e-02
-1.167869567871093750e-02
-1.148343086242675781e-02
-1.112031936645507812e-02
-1.094889640808105469e-02
-1.077055931091308594e-02
-1.133620738983154297e-02
-1.756453514099121094e-02
-1.822078227996826172e-02
-1.753604412078857422e-02
-1.737391948699951172e-02
-1.690828800201416016e-02
-1.661372184753417969e-02
-1.662600040435791016e-02
-2.274727821350097656e-02
-2.397871017456054688e-02
-2.296805381774902344e-02
-2.299714088439941406e-02
-2.245068550109863281e-02
-2.214169502258300781e-02
-2.184963226318359375e-02
-2.763152122497558594e-02
-2.933204174041748047e-02
-2.834582328796386719e-02
-2.858030796051025391e-02
-2.826333045959472656e-02
-2.808415889739990234e-02
-2.755284309387207031e-02
-3.262710571289062500e-02
-3.488767147064208984e-02
-3.404450416564941406e-02
-3.454160690307617188e-02
-3.436255455017089844e-02
-3.422987461090087891e-02
-3.358948230743408203e-02
-3.722393512725830078e-02
-3.921437263488769531e-02
-3.852617740631103516e-02
-3.878259658813476562e-02
-3.840446472167968750e-02
-3.803527355194091797e-02
-3.749477863311767578e-02
-3.793430328369140625e-02
-3.812193870544433594e-02
-3.772914409637451172e-02
-3.751230239868164062e-02
-3.708708286285400391e-02
-3.661894798278808594e-02
-3.632462024688720703e-02
-3.555881977081298828e-02
-3.480219841003417969e-02
-3.462684154510498047e-02
-3.449904918670654297e-02
-3.437817096710205078e-02
-3.404724597930908203e-02
-3.405296802520751953e-02
-3.296935558319091797e-02
-3.158283233642578125e-02
-3.159224987030029297e-02
-3.149223327636718750e-02
-3.170394897460937500e-02
-3.151142597198486328e-02
-3.187918663024902344e-02
-3.083705902099609375e-02
-2.906632423400878906e-02
-2.927899360656738281e-02
-2.906906604766845703e-02
-2.941548824310302734e-02
-2.936553955078125000e-02
-2.975773811340332031e-02
-2.868771553039550781e-02
-2.664196491241455078e-02
-2.684438228607177734e-02
-2.657115459442138672e-02
-2.680730819702148438e-02
-2.688002586364746094e-02
-2.714347839355468750e-02
-2.624106407165527344e-02
-2.426970005035400391e-02
-2.441060543060302734e-02
-2.415001392364501953e-02
-2.417075634002685547e-02
-2.409875392913818359e-02
-2.418577671051025391e-02
-2.355754375457763672e-02
-2.173519134521484375e-02
-2.174282073974609375e-02
-2.146995067596435547e-02
-2.134454250335693359e-02
-2.112185955047607422e-02
-2.114748954772949219e-02
-2.066171169281005859e-02
-1.911556720733642578e-02
-1.905441284179687500e-02
-1.889801025390625000e-02
-1.878094673156738281e-02
-1.861286163330078125e-02
-1.847004890441894531e-02
-1.827621459960937500e-02
-1.772391796112060547e-02
-1.770687103271484375e-02
-1.758635044097900391e-02
-1.760506629943847656e-02
-1.754617691040039062e-02
-1.749265193939208984e-02
-1.743233203887939453e-02
-1.719129085540771484e-02
-1.732635498046875000e-02
-1.718544960021972656e-02
-1.719319820404052734e-02
-1.717090606689453125e-02
-1.717174053192138672e-02
-1.707708835601806641e-02
-1.696479320526123047e-02
-1.711034774780273438e-02
-1.685738563537597656e-02
-1.668953895568847656e-02
-1.672947406768798828e-02
-1.675224304199218750e-02
-1.663196086883544922e-02
-1.656639575958251953e-02
-1.666128635406494141e-02
-1.658058166503906250e-02
-1.633453369140625000e-02
-1.632249355316162109e-02
-1.644229888916015625e-02
-1.632821559906005859e-02
-1.627528667449951172e-02
-1.646971702575683594e-02
-1.634526252746582031e-02
-1.608383655548095703e-02
-1.623356342315673828e-02
-1.623868942260742188e-02
-1.615178585052490234e-02
-1.620864868164062500e-02
-1.633048057556152344e-02
-1.625466346740722656e-02
-1.613247394561767578e-02
-1.628506183624267578e-02
-1.622247695922851562e-02
-1.621043682098388672e-02
-1.629769802093505859e-02
-1.643443107604980469e-02
-1.641249656677246094e-02
-1.636826992034912109e-02
-1.661562919616699219e-02
-1.649451255798339844e-02
-1.648533344268798828e-02
-1.665329933166503906e-02
-1.662826538085937500e-02
-1.649475097656250000e-02
-1.640522480010986328e-02
-1.642227172851562500e-02
-1.614665985107421875e-02
-1.590406894683837891e-02
-1.597142219543457031e-02
-1.579010486602783203e-02
-1.557600498199462891e-02
-1.545822620391845703e-02
-1.539468765258789062e-02
-1.513850688934326172e-02
-1.497960090637207031e-02
-1.502716541290283203e-02
-1.480877399444580078e-02
-1.461505889892578125e-02
-1.461946964263916016e-02
-1.450455188751220703e-02
-1.432013511657714844e-02
-1.428246498107910156e-02
-1.434910297393798828e-02
-1.410090923309326172e-02
-1.394224166870117188e-02
-1.383113861083984375e-02
-1.369273662567138672e-02
-1.364898681640625000e-02
-1.357710361480712891e-02
-1.367163658142089844e-02
-1.342654228210449219e-02
-1.324999332427978516e-02
-1.318216323852539062e-02
-1.304543018341064453e-02
-1.293516159057617188e-02
-1.289772987365722656e-02
-1.295745372772216797e-02
-1.273095607757568359e-02
-1.260542869567871094e-02
-1.252973079681396484e-02
-1.238834857940673828e-02
-1.237869262695312500e-02
-1.235115528106689453e-02
-1.237702369689941406e-02
-1.228094100952148438e-02
-1.203238964080810547e-02
-1.195633411407470703e-02
-1.189100742340087891e-02
-1.190018653869628906e-02
-1.181030273437500000e-02
-1.183414459228515625e-02
-1.182699203491210938e-02
-1.161193847656250000e-02
-1.167833805084228516e-02
-1.162934303283691406e-02
-1.164603233337402344e-02
-1.164948940277099609e-02
-1.168096065521240234e-02
-1.172995567321777344e-02
-1.150715351104736328e-02
-1.157224178314208984e-02
-1.153194904327392578e-02
-1.146650314331054688e-02
-1.150047779083251953e-02
-1.145994663238525391e-02
-1.155006885528564453e-02
-1.141309738159179688e-02
-1.144254207611083984e-02
-1.140272617340087891e-02
-1.131582260131835938e-02
-1.128399372100830078e-02
-1.130497455596923828e-02
-1.151371002197265625e-02
-1.142060756683349609e-02
-1.156079769134521484e-02
-1.156163215637207031e-02
-1.145803928375244141e-02
-1.155161857604980469e-02
-1.155304908752441406e-02
-1.185059547424316406e-02
-1.182365417480468750e-02
-1.206886768341064453e-02
-1.223552227020263672e-02
-1.216149330139160156e-02
-1.211559772491455078e-02
-1.189506053924560547e-02
-1.241314411163330078e-02
-1.259231567382812500e-02
-1.261210441589355469e-02
-1.211774349212646484e-02
-1.176691055297851562e-02
-1.157903671264648438e-02
-1.126694679260253906e-02
-1.130032539367675781e-02
-1.124060153961181641e-02
-1.121628284454345703e-02
-1.087081432342529297e-02
-1.061296463012695312e-02
-1.040410995483398438e-02
-9.970545768737792969e-03
-9.910106658935546875e-03
-9.949684143066406250e-03
-9.896278381347656250e-03
-9.669661521911621094e-03
-9.514689445495605469e-03
-9.441018104553222656e-03
-9.213089942932128906e-03
-9.147286415100097656e-03
-9.084582328796386719e-03
-9.172081947326660156e-03
-9.021878242492675781e-03
-8.918881416320800781e-03
-8.905649185180664062e-03
-8.633732795715332031e-03
-8.544445037841796875e-03
-8.397459983825683594e-03
-8.414149284362792969e-03
-8.259892463684082031e-03
-8.172273635864257812e-03
-8.094668388366699219e-03
-7.907271385192871094e-03
-7.811188697814941406e-03
-7.601737976074218750e-03
-7.609724998474121094e-03
-7.417678833007812500e-03
-7.393479347229003906e-03
-7.321476936340332031e-03
-7.337450981140136719e-03
-7.243871688842773438e-03
-7.042884826660156250e-03
-7.133364677429199219e-03
-6.874322891235351562e-03
-6.979346275329589844e-03
-7.032036781311035156e-03
-7.048130035400390625e-03
-7.043600082397460938e-03
-6.770253181457519531e-03
-6.945610046386718750e-03
-6.843447685241699219e-03
-6.828546524047851562e-03
-6.913661956787109375e-03
-6.951451301574707031e-03
-6.958723068237304688e-03
-6.763219833374023438e-03
-6.943941116333007812e-03
-6.856083869934082031e-03
-6.797075271606445312e-03
-6.957769393920898438e-03
-6.934762001037597656e-03
-6.943941116333007812e-03
-6.799221038818359375e-03
-7.002949714660644531e-03
-6.787776947021484375e-03
-6.722450256347656250e-03
-6.874799728393554688e-03
-6.786346435546875000e-03
-6.812810897827148438e-03
-6.812214851379394531e-03
-6.961703300476074219e-03
-6.784915924072265625e-03
-6.690621376037597656e-03
-6.976246833801269531e-03
-6.757616996765136719e-03
-6.773233413696289062e-03
-6.790757179260253906e-03
-6.878495216369628906e-03
-6.941676139831542969e-03
-6.771087646484375000e-03
-7.043838500976562500e-03
-6.864905357360839844e-03
-6.829023361206054688e-03
-6.877660751342773438e-03
-6.906270980834960938e-03
-6.899476051330566406e-03
-6.729483604431152344e-03
-6.900072097778320312e-03
-6.718397140502929688e-03
-6.582617759704589844e-03
-6.530046463012695312e-03
-6.422400474548339844e-03
-6.456971168518066406e-03
-6.359577178955078125e-03
-6.497979164123535156e-03
-6.294846534729003906e-03
-6.151676177978515625e-03
-5.974769592285156250e-03
-5.743980407714843750e-03
-5.799770355224609375e-03
-5.654335021972656250e-03
-5.737185478210449219e-03
-5.639672279357910156e-03
-5.415678024291992188e-03
-5.344152450561523438e-03
-4.998087882995605469e-03
-5.049586296081542969e-03
-4.970312118530273438e-03
-4.989504814147949219e-03
-4.957914352416992188e-03
-4.803419113159179688e-03
-4.718065261840820312e-03
-4.123687744140625000e-03
-4.069805145263671875e-03
-4.107713699340820312e-03
-4.129052162170410156e-03
-4.087924957275390625e-03
-3.987550735473632812e-03
-3.925323486328125000e-03
-3.362298011779785156e-03
-3.227114677429199219e-03
-3.285050392150878906e-03
-3.283023834228515625e-03
-3.292798995971679688e-03
-3.264069557189941406e-03
-3.279685974121093750e-03
-2.676963806152343750e-03
-2.470374107360839844e-03
-2.614378929138183594e-03
-2.644658088684082031e-03
-2.717494964599609375e-03
-2.660036087036132812e-03
-2.748250961303710938e-03
-2.163290977478027344e-03
-1.927495002746582031e-03
-2.067208290100097656e-03
-2.132415771484375000e-03
-2.284049987792968750e-03
-2.198219299316406250e-03
-2.339482307434082031e-03
-1.920223236083984375e-03
-1.571059226989746094e-03
-1.675248146057128906e-03
-1.766085624694824219e-03
-1.926183700561523438e-03
-1.958012580871582031e-03
-2.022147178649902344e-03
-1.633882522583007812e-03
-1.314282417297363281e-03
-1.404881477355957031e-03
-1.444578170776367188e-03
-1.556515693664550781e-03
-1.582741737365722656e-03
-1.692533493041992188e-03
-1.473546028137207031e-03
-1.030325889587402344e-03
-1.057505607604980469e-03
-1.103043556213378906e-03
-1.322507858276367188e-03
-1.233458518981933594e-03
-1.354575157165527344e-03
-1.143217086791992188e-03
-6.142854690551757812e-04
-6.777048110961914062e-04
-7.452964782714843750e-04
-9.039640426635742188e-04
-8.243322372436523438e-04
-1.040458679199218750e-03
-8.919239044189453125e-04
-2.630949020385742188e-04
-2.961158752441406250e-04
-3.427267074584960938e-04
-4.776716232299804688e-04
-4.308223724365234375e-04
-4.453659057617187500e-04
-4.200935363769531250e-04
2.511739730834960938e-04
3.134012222290039062e-04
2.160072326660156250e-04
1.528263092041015625e-04
1.481771469116210938e-04
8.141994476318359375e-05
7.700920104980468750e-05
6.104707717895507812e-04
6.647109985351562500e-04
6.142854690551757812e-04
4.832744598388671875e-04
4.756450653076171875e-04
3.666877746582031250e-04
2.957582473754882812e-04
9.392499923706054688e-04
1.089930534362792969e-03
1.004934310913085938e-03
9.711980819702148438e-04
9.282827377319335938e-04
8.797645568847656250e-04
7.382631301879882812e-04
1.376748085021972656e-03
1.561641693115234375e-03
1.406431198120117188e-03
1.446366310119628906e-03
1.361370086669921875e-03
1.292586326599121094e-03
1.072525978088378906e-03
1.666188240051269531e-03
1.916289329528808594e-03
1.764416694641113281e-03
1.755952835083007812e-03
1.621603965759277344e-03
1.558423042297363281e-03
1.334667205810546875e-03
1.887679100036621094e-03
2.148389816284179688e-03
1.943349838256835938e-03
1.960039138793945312e-03
1.809000968933105469e-03
1.634597778320312500e-03
1.396775245666503906e-03
1.856327056884765625e-03
2.155900001525878906e-03
1.881957054138183594e-03
1.870632171630859375e-03
1.700162887573242188e-03
1.595735549926757812e-03
1.358866691589355469e-03
1.685261726379394531e-03
2.013683319091796875e-03
1.795530319213867188e-03
1.801490783691406250e-03
1.633286476135253906e-03
1.621007919311523438e-03
1.330852508544921875e-03
1.572608947753906250e-03
2.079844474792480469e-03
1.792430877685546875e-03
1.682043075561523438e-03
1.589417457580566406e-03
1.541614532470703125e-03
1.313447952270507812e-03
1.563549041748046875e-03
2.133727073669433594e-03
1.894235610961914062e-03
1.739978790283203125e-03
1.606464385986328125e-03
1.582264900207519531e-03
1.286506652832031250e-03
1.568436622619628906e-03
2.302527427673339844e-03
2.112150192260742188e-03
1.984715461730957031e-03
1.866102218627929688e-03
1.877665519714355469e-03
1.745104789733886719e-03
1.875996589660644531e-03
2.466201782226562500e-03
2.332925796508789062e-03
2.103924751281738281e-03
2.071619033813476562e-03
1.996278762817382812e-03
1.865863800048828125e-03
2.033829689025878906e-03
2.599358558654785156e-03
2.497673034667968750e-03
2.320408821105957031e-03
2.239584922790527344e-03
2.169728279113769531e-03
2.022266387939453125e-03
2.115964889526367188e-03
2.691626548767089844e-03
2.630233764648437500e-03
2.479672431945800781e-03
2.440214157104492188e-03
2.271294593811035156e-03
2.178311347961425781e-03
2.188444137573242188e-03
2.737998962402343750e-03
2.770066261291503906e-03
2.583980560302734375e-03
2.649426460266113281e-03
2.534627914428710938e-03
2.373218536376953125e-03
2.341508865356445312e-03
2.881884574890136719e-03
2.941370010375976562e-03
2.756714820861816406e-03
2.794742584228515625e-03
2.753019332885742188e-03
2.582907676696777344e-03
2.527952194213867188e-03
2.975583076477050781e-03
3.071308135986328125e-03
2.907514572143554688e-03
2.994537353515625000e-03
2.890229225158691406e-03
2.758741378784179688e-03
2.566695213317871094e-03
2.993941307067871094e-03
3.157615661621093750e-03
3.018498420715332031e-03
3.112792968750000000e-03
2.965569496154785156e-03
2.847194671630859375e-03
2.696394920349121094e-03
3.025174140930175781e-03
3.223896026611328125e-03
3.081083297729492188e-03
3.104209899902343750e-03
3.053903579711914062e-03
2.953767776489257812e-03
2.809166908264160156e-03
3.021001815795898438e-03
3.187060356140136719e-03
3.047347068786621094e-03
3.067374229431152344e-03
3.059744834899902344e-03
2.916932106018066406e-03
2.807974815368652344e-03
3.023624420166015625e-03
3.236532211303710938e-03
3.060221672058105469e-03
3.007888793945312500e-03
3.050088882446289062e-03
3.000855445861816406e-03
2.854347229003906250e-03
2.972126007080078125e-03
3.230810165405273438e-03
3.070235252380371094e-03
3.083586692810058594e-03
3.066182136535644531e-03
3.013730049133300781e-03
2.953290939331054688e-03
2.982378005981445312e-03
3.145337104797363281e-03
3.003954887390136719e-03
2.992630004882812500e-03
2.991795539855957031e-03
2.971172332763671875e-03
2.867579460144042969e-03
2.933144569396972656e-03
3.162026405334472656e-03
3.100872039794921875e-03
3.055572509765625000e-03
3.010749816894531250e-03
3.022193908691406250e-03
2.953052520751953125e-03
3.008723258972167969e-03
3.070235252380371094e-03
3.015518188476562500e-03
2.992630004882812500e-03
2.935171127319335938e-03
2.933502197265625000e-03
2.913713455200195312e-03
2.941489219665527344e-03
3.164887428283691406e-03
3.015041351318359375e-03
3.004312515258789062e-03
3.047585487365722656e-03
2.956867218017578125e-03
2.966761589050292969e-03
2.960324287414550781e-03
3.069996833801269531e-03
3.020167350769042969e-03
2.999782562255859375e-03
2.933502197265625000e-03
2.913236618041992188e-03
2.898335456848144531e-03
2.883911132812500000e-03
3.053784370422363281e-03
3.037691116333007812e-03
3.012299537658691406e-03
2.966284751892089844e-03
2.908468246459960938e-03
2.927064895629882812e-03
2.931356430053710938e-03
2.993822097778320312e-03
2.993941307067871094e-03
2.978205680847167969e-03
2.956986427307128906e-03
2.871394157409667969e-03
2.905249595642089844e-03
2.872228622436523438e-03
3.002882003784179688e-03
3.025293350219726562e-03
2.992749214172363281e-03
2.968072891235351562e-03
2.952575683593750000e-03
2.986073493957519531e-03
2.964735031127929688e-03
2.939224243164062500e-03
2.990365028381347656e-03
2.972602844238281250e-03
2.915263175964355469e-03
2.916932106018066406e-03
2.905011177062988281e-03
2.924799919128417969e-03
2.901196479797363281e-03
2.922177314758300781e-03
2.907991409301757812e-03
2.838969230651855469e-03
2.808570861816406250e-03
2.876400947570800781e-03
2.835512161254882812e-03
2.870082855224609375e-03
2.912044525146484375e-03
2.889871597290039062e-03
2.883195877075195312e-03
2.867341041564941406e-03
2.874732017517089844e-03
2.885103225708007812e-03
2.870082855224609375e-03
2.930402755737304688e-03
2.868652343750000000e-03
2.816319465637207031e-03
2.809405326843261719e-03
2.829313278198242188e-03
2.777218818664550781e-03
2.823114395141601562e-03
2.835631370544433594e-03
2.769947052001953125e-03
2.793073654174804688e-03
2.750635147094726562e-03
2.740859985351562500e-03
2.761840820312500000e-03
2.774715423583984375e-03
2.744436264038085938e-03
2.720355987548828125e-03
2.702116966247558594e-03
2.666831016540527344e-03
2.673029899597167969e-03
2.666115760803222656e-03
2.669095993041992188e-03
2.634286880493164062e-03
2.593755722045898438e-03
2.632141113281250000e-03
2.608537673950195312e-03
2.618670463562011719e-03
2.628803253173828125e-03
2.548098564147949219e-03
2.494812011718750000e-03
2.437591552734375000e-03
2.453684806823730469e-03
2.461314201354980469e-03
2.458810806274414062e-03
2.503633499145507812e-03
2.483844757080078125e-03
2.468943595886230469e-03
2.436757087707519531e-03
2.403616905212402344e-03
2.454996109008789062e-03
2.455711364746093750e-03
2.440333366394042969e-03
2.467989921569824219e-03
2.412438392639160156e-03
2.362608909606933594e-03
2.341508865356445312e-03
2.297163009643554688e-03
2.331733703613281250e-03
2.313733100891113281e-03
2.408385276794433594e-03
2.293229103088378906e-03
2.169609069824218750e-03
2.188563346862792969e-03
2.232432365417480469e-03
2.223134040832519531e-03
2.217531204223632812e-03
2.246618270874023438e-03
2.268671989440917969e-03
2.184629440307617188e-03
2.170324325561523438e-03
2.169609069824218750e-03
2.127170562744140625e-03
2.144217491149902344e-03
2.139329910278320312e-03
2.155780792236328125e-03
1.944065093994140625e-03
2.019286155700683594e-03
2.019882202148437500e-03
2.004861831665039062e-03
2.057313919067382812e-03
1.988291740417480469e-03
2.022743225097656250e-03
1.964926719665527344e-03
1.999616622924804688e-03
2.066493034362792969e-03
2.010464668273925781e-03
1.928329467773437500e-03
1.947999000549316406e-03
1.957654953002929688e-03
1.819372177124023438e-03
1.805901527404785156e-03
1.842737197875976562e-03
1.805186271667480469e-03
1.814842224121093750e-03
1.869916915893554688e-03
1.788020133972167969e-03
1.779317855834960938e-03
1.767873764038085938e-03
1.784801483154296875e-03
1.734375953674316406e-03
1.754999160766601562e-03
1.793742179870605469e-03
1.684308052062988281e-03
1.650691032409667969e-03
1.675128936767578125e-03
1.636505126953125000e-03
1.588940620422363281e-03
1.608967781066894531e-03
1.633286476135253906e-03
1.616716384887695312e-03
1.559019088745117188e-03
1.590728759765625000e-03
1.628398895263671875e-03
1.625776290893554688e-03
1.572728157043457031e-03
1.653313636779785156e-03
1.568794250488281250e-03
1.526832580566406250e-03
1.559376716613769531e-03
1.488804817199707031e-03
1.507401466369628906e-03
1.439571380615234375e-03
1.446485519409179688e-03
1.458287239074707031e-03
1.328825950622558594e-03
1.275777816772460938e-03
1.355528831481933594e-03
1.315355300903320312e-03
1.318693161010742188e-03
1.274228096008300781e-03
1.323461532592773438e-03
1.262664794921875000e-03
1.136898994445800781e-03
1.198291778564453125e-03
1.156091690063476562e-03
1.199007034301757812e-03
1.210451126098632812e-03
1.224875450134277344e-03
1.042723655700683594e-03
9.651184082031250000e-04
9.669065475463867188e-04
9.359121322631835938e-04
9.295940399169921875e-04
9.250640869140625000e-04
9.942054748535156250e-04
8.655786514282226562e-04
7.317066192626953125e-04
7.487535476684570312e-04
7.976293563842773438e-04
7.411241531372070312e-04
7.307529449462890625e-04
7.246732711791992188e-04
6.140470504760742188e-04
5.291700363159179688e-04
5.307197570800781250e-04
4.714727401733398438e-04
5.056858062744140625e-04
5.344152450561523438e-04
5.072355270385742188e-04
4.155635833740234375e-04
2.757310867309570312e-04
2.599954605102539062e-04
2.990961074829101562e-04
3.508329391479492188e-04
2.900362014770507812e-04
3.455877304077148438e-04
2.894401550292968750e-04
8.499622344970703125e-05
1.316070556640625000e-04
1.232624053955078125e-04
1.070499420166015625e-04
1.064538955688476562e-04
9.107589721679687500e-05
-9.059906005859375000e-06
-1.145601272583007812e-04
-1.444816589355468750e-04
-9.238719940185546875e-05
-1.121759414672851562e-04
-1.484155654907226562e-04
-1.664161682128906250e-04
-1.535415649414062500e-04
-2.844333648681640625e-04
-3.509521484375000000e-04
-2.882480621337890625e-04
-3.347396850585937500e-04
-3.199577331542968750e-04
-3.347396850585937500e-04
-3.744363784790039062e-04
-5.536079406738281250e-04
-5.246400833129882812e-04
-5.352497100830078125e-04
-5.446672439575195312e-04
-5.311965942382812500e-04
-5.929470062255859375e-04
-4.769563674926757812e-04
-8.196830749511718750e-04
-8.996725082397460938e-04
-8.646249771118164062e-04
-9.108781814575195312e-04
-8.457899093627929688e-04
-9.012222290039062500e-04
-8.752346038818359375e-04
-1.076579093933105469e-03
-1.146197319030761719e-03
-1.086950302124023438e-03
-1.070499420166015625e-03
-1.053333282470703125e-03
-1.062870025634765625e-03
-1.077055931091308594e-03
-1.183986663818359375e-03
-1.263260841369628906e-03
-1.239538192749023438e-03
-1.249790191650390625e-03
-1.232862472534179688e-03
-1.218557357788085938e-03
-1.220583915710449219e-03
-1.319885253906250000e-03
-1.410126686096191406e-03
-1.401543617248535156e-03
-1.415610313415527344e-03
-1.417994499206542969e-03
-1.397132873535156250e-03
-1.368999481201171875e-03
-1.511335372924804688e-03
-1.547455787658691406e-03
-1.470327377319335938e-03
-1.478910446166992188e-03
-1.499533653259277344e-03
-1.500964164733886719e-03
-1.485466957092285156e-03
-1.562595367431640625e-03
-1.726746559143066406e-03
-1.623988151550292969e-03
-1.687288284301757812e-03
-1.679062843322753906e-03
-1.635551452636718750e-03
-1.616001129150390625e-03
-1.706004142761230469e-03
-1.896023750305175781e-03
-1.847386360168457031e-03
-1.845598220825195312e-03
-1.842498779296875000e-03
-1.836299896240234375e-03
-1.814126968383789062e-03
-1.877665519714355469e-03
-1.959085464477539062e-03
-1.962661743164062500e-03
-1.976013183593750000e-03
-1.982331275939941406e-03
-1.998424530029296875e-03
-1.957416534423828125e-03
-2.029299736022949219e-03
-2.159476280212402344e-03
-2.163648605346679688e-03
-2.174258232116699219e-03
-2.120614051818847656e-03
-2.142429351806640625e-03
-2.124667167663574219e-03
-2.174854278564453125e-03
-2.243041992187500000e-03
-2.245426177978515625e-03
-2.275228500366210938e-03
-2.218127250671386719e-03
-2.185106277465820312e-03
-2.166032791137695312e-03
-2.204656600952148438e-03
-2.389311790466308594e-03
-2.368688583374023438e-03
-2.337813377380371094e-03
-2.409458160400390625e-03
-2.409338951110839844e-03
-2.410054206848144531e-03
-2.416372299194335938e-03
-2.575874328613281250e-03
-2.608299255371093750e-03
-2.564549446105957031e-03
-2.590060234069824219e-03
-2.545356750488281250e-03
-2.541065216064453125e-03
-2.512931823730468750e-03
-2.699375152587890625e-03
-2.785801887512207031e-03
-2.700090408325195312e-03
-2.705931663513183594e-03
-2.678155899047851562e-03
-2.722501754760742188e-03
-2.650618553161621094e-03
-2.791404724121093750e-03
-2.842307090759277344e-03
-2.853631973266601562e-03
-2.855062484741210938e-03
-2.805948257446289062e-03
-2.801418304443359375e-03
-2.773642539978027344e-03
-2.948522567749023438e-03
-3.008604049682617188e-03
-2.968192100524902344e-03
-2.992987632751464844e-03
-2.976655960083007812e-03
-2.984285354614257812e-03
-2.973437309265136719e-03
-3.043174743652343750e-03
-3.140807151794433594e-03
-3.069519996643066406e-03
-3.111958503723144531e-03
-3.142237663269042969e-03
-3.118395805358886719e-03
-3.057718276977539062e-03
-3.190755844116210938e-03
-3.294706344604492188e-03
-3.273487091064453125e-03
-3.259778022766113281e-03
-3.229618072509765625e-03
-3.312945365905761719e-03
-3.198862075805664062e-03
-3.294229507446289062e-03
-3.423690795898437500e-03
-3.361344337463378906e-03
-3.353714942932128906e-03
-3.363013267517089844e-03
-3.366708755493164062e-03
-3.346681594848632812e-03
-3.361463546752929688e-03
-3.568410873413085938e-03
-3.469586372375488281e-03
-3.434658050537109375e-03
-3.479838371276855469e-03
-3.486752510070800781e-03
-3.464579582214355469e-03
-3.559470176696777344e-03
-3.687262535095214844e-03
-3.647565841674804688e-03
-3.653883934020996094e-03
-3.606319427490234375e-03
-3.607869148254394531e-03
-3.591179847717285156e-03
-3.588199615478515625e-03
-3.580212593078613281e-03
-3.578901290893554688e-03
-3.561139106750488281e-03
-3.553390502929687500e-03
-3.537416458129882812e-03
-3.561258316040039062e-03
-3.542661666870117188e-03
-3.507614135742187500e-03
-3.490686416625976562e-03
-3.525614738464355469e-03
-3.486514091491699219e-03
-3.495216369628906250e-03
-3.484249114990234375e-03
-3.432750701904296875e-03
-3.411650657653808594e-03
-3.428578376770019531e-03
-3.391146659851074219e-03
-3.463864326477050781e-03
-3.352403640747070312e-03
-3.316283226013183594e-03
-3.450989723205566406e-03
-3.399848937988281250e-03
-3.387808799743652344e-03
-3.354668617248535156e-03
-3.299236297607421875e-03
-3.349304199218750000e-03
-3.310322761535644531e-03
-3.302812576293945312e-03
-3.275990486145019531e-03
-3.277897834777832031e-03
-3.322243690490722656e-03
-3.252029418945312500e-03
-3.268361091613769531e-03
-3.234863281250000000e-03
-3.251552581787109375e-03
-3.226518630981445312e-03
-3.240704536437988281e-03
-3.235220909118652344e-03
-3.196716308593750000e-03
-3.167033195495605469e-03
-3.158211708068847656e-03
-3.160953521728515625e-03
-3.162384033203125000e-03
-3.159523010253906250e-03
-3.148436546325683594e-03
-3.178715705871582031e-03
-3.159284591674804688e-03
-3.090381622314453125e-03
-3.084301948547363281e-03
-3.086209297180175781e-03
-3.070473670959472656e-03
-3.071188926696777344e-03
-3.087282180786132812e-03
-3.040790557861328125e-03
-3.056883811950683594e-03
-3.063321113586425781e-03
-3.056168556213378906e-03
-3.023743629455566406e-03
-3.037929534912109375e-03
-2.977013587951660156e-03
-2.970933914184570312e-03
-2.991914749145507812e-03
-3.000855445861816406e-03
-2.951741218566894531e-03
-2.981066703796386719e-03
-2.943992614746093750e-03
-2.908825874328613281e-03
-3.021836280822753906e-03
-2.911806106567382812e-03
-2.887368202209472656e-03
-2.937436103820800781e-03
-2.919077873229980469e-03
-2.878427505493164062e-03
-2.854108810424804688e-03
-2.843379974365234375e-03
-2.838730812072753906e-03
-2.836465835571289062e-03
-2.854466438293457031e-03
-2.881646156311035156e-03
-2.833724021911621094e-03
-2.875208854675292969e-03
-2.835154533386230469e-03
-2.839446067810058594e-03
-2.826809883117675781e-03
-2.817749977111816406e-03
-2.826333045959472656e-03
-2.809524536132812500e-03
-2.776265144348144531e-03
-2.801537513732910156e-03
-2.755284309387207031e-03
-2.806305885314941406e-03
-2.730607986450195312e-03
-2.808332443237304688e-03
-2.898454666137695312e-03
-2.883911132812500000e-03
-2.860069274902343750e-03
-2.723813056945800781e-03
-3.033518791198730469e-03
-3.094315528869628906e-03
-3.110408782958984375e-03
-2.791523933410644531e-03
-2.617359161376953125e-03
-2.703785896301269531e-03
-2.607583999633789062e-03
-2.585768699645996094e-03
-2.596378326416015625e-03
-2.612590789794921875e-03
-2.581357955932617188e-03
-2.567768096923828125e-03
-2.531170845031738281e-03
-2.575039863586425781e-03
-2.565741539001464844e-03
-2.594470977783203125e-03
-2.539634704589843750e-03
-2.471685409545898438e-03
-2.513051033020019531e-03
-2.492785453796386719e-03
-2.491235733032226562e-03
-2.482533454895019531e-03
-2.485871315002441406e-03
-2.479910850524902344e-03
-2.489686012268066406e-03
-2.458453178405761719e-03
-2.447128295898437500e-03
-2.431869506835937500e-03
-2.478599548339843750e-03
-2.472400665283203125e-03
-2.428770065307617188e-03
-2.435207366943359375e-03
-2.436995506286621094e-03
-2.439260482788085938e-03
-2.399325370788574219e-03
-2.462387084960937500e-03
-2.397537231445312500e-03
-2.367377281188964844e-03
-2.358675003051757812e-03
-2.372145652770996094e-03
-2.372145652770996094e-03
-2.397179603576660156e-03
-2.454757690429687500e-03
-2.357602119445800781e-03
-2.327799797058105469e-03
-2.307891845703125000e-03
-2.367377281188964844e-03
-2.324700355529785156e-03
-2.274513244628906250e-03
-2.274274826049804688e-03
-2.295970916748046875e-03
-2.272009849548339844e-03
-2.273082733154296875e-03
-2.261638641357421875e-03
-2.257585525512695312e-03
-2.294659614562988281e-03
-2.225279808044433594e-03
-2.244710922241210938e-03
-2.277135848999023438e-03
-2.258419990539550781e-03
-2.223610877990722656e-03
-2.218365669250488281e-03
-2.209305763244628906e-03
-2.256155014038085938e-03
-2.220392227172851562e-03
-2.212166786193847656e-03
-2.187848091125488281e-03
-2.190709114074707031e-03
-2.179622650146484375e-03
-2.160668373107910156e-03
-2.148032188415527344e-03
-2.152085304260253906e-03
-2.187490463256835938e-03
-2.125978469848632812e-03
-2.157688140869140625e-03
-2.106070518493652344e-03
-2.118468284606933594e-03
-2.101540565490722656e-03
-2.092361450195312500e-03
-2.140164375305175781e-03
-2.086520195007324219e-03
-2.137184143066406250e-03
-2.097368240356445312e-03
-2.021074295043945312e-03
-2.050042152404785156e-03
-2.066731452941894531e-03
-2.027511596679687500e-03
-2.045631408691406250e-03
-2.044677734375000000e-03
-2.017855644226074219e-03
-2.023577690124511719e-03
-2.037048339843750000e-03
-2.019762992858886719e-03
-2.010941505432128906e-03
-1.973509788513183594e-03
-1.785397529602050781e-03
-1.788020133972167969e-03
-1.759171485900878906e-03
-1.776456832885742188e-03
-1.776099205017089844e-03
-1.758575439453125000e-03
-1.752853393554687500e-03
-1.601457595825195312e-03
-1.597046852111816406e-03
-1.601815223693847656e-03
-1.551985740661621094e-03
-1.489281654357910156e-03
-1.547098159790039062e-03
-1.527547836303710938e-03
-1.310944557189941406e-03
-1.288414001464843750e-03
-1.290202140808105469e-03
-1.286387443542480469e-03
-1.311421394348144531e-03
-1.268625259399414062e-03
-1.335740089416503906e-03
-1.139998435974121094e-03
-1.044511795043945312e-03
-1.093506813049316406e-03
-1.110076904296875000e-03
-1.120686531066894531e-03
-1.111865043640136719e-03
-1.120686531066894531e-03
-9.682178497314453125e-04
-8.543729782104492188e-04
-9.095668792724609375e-04
-8.721351623535156250e-04
-8.460283279418945312e-04
-8.275508880615234375e-04
-8.789300918579101562e-04
-7.866621017456054688e-04
-6.785392761230468750e-04
-6.928443908691406250e-04
-6.620883941650390625e-04
-7.108449935913085938e-04
-6.650686264038085938e-04
-6.264448165893554688e-04
-5.528926849365234375e-04
-5.185604095458984375e-04
-5.526542663574218750e-04
-5.651712417602539062e-04
-5.472898483276367188e-04
-5.084276199340820312e-04
-5.235671997070312500e-04
-4.142522811889648438e-04
-3.138780593872070312e-04
-3.442764282226562500e-04
-3.020763397216796875e-04
-3.719329833984375000e-04
-3.362894058227539062e-04
-3.687143325805664062e-04
-2.830028533935546875e-04
-1.326799392700195312e-04
-1.766681671142578125e-04
-9.202957153320312500e-05
-1.344680786132812500e-04
-9.465217590332031250e-05
-1.008510589599609375e-04
-9.655952453613281250e-05
-1.192092895507812500e-05
-6.914138793945312500e-06
-1.132488250732421875e-05
-3.206729888916015625e-05
2.360343933105468750e-05
8.463859558105468750e-06
3.170967102050781250e-05
1.711845397949218750e-04
1.589059829711914062e-04
2.129077911376953125e-04
2.373456954956054688e-04
1.957416534423828125e-04
2.011060714721679688e-04
2.753734588623046875e-04
4.810094833374023438e-04
4.682540893554687500e-04
5.246400833129882812e-04
5.002021789550781250e-04
4.386901855468750000e-04
4.613399505615234375e-04
4.307031631469726562e-04
5.605220794677734375e-04
5.630254745483398438e-04
5.730390548706054688e-04
5.542039871215820312e-04
5.297660827636718750e-04
5.608797073364257812e-04
5.545616149902343750e-04
6.242990493774414062e-04
6.138086318969726562e-04
6.556510925292968750e-04
6.549358367919921875e-04
6.240606307983398438e-04
6.127357482910156250e-04
6.340742111206054688e-04
8.023977279663085938e-04
7.592439651489257812e-04
7.452964782714843750e-04
7.821321487426757812e-04
7.764101028442382812e-04
7.737874984741210938e-04
7.607936859130859375e-04
8.711814880371093750e-04
8.817911148071289062e-04
8.348226547241210938e-04
8.528232574462890625e-04
8.608102798461914062e-04
8.749961853027343750e-04
8.144378662109375000e-04
8.587837219238281250e-04
8.548498153686523438e-04
8.291006088256835938e-04
8.417367935180664062e-04
8.207559585571289062e-04
8.300542831420898438e-04
8.647441864013671875e-04
9.804964065551757812e-04
9.273290634155273438e-04
8.846521377563476562e-04
9.192228317260742188e-04
9.448528289794921875e-04
9.543895721435546875e-04
9.284019470214843750e-04
9.571313858032226562e-04
9.814500808715820312e-04
8.977651596069335938e-04
9.157657623291015625e-04
9.374618530273437500e-04
9.198188781738281250e-04
8.845329284667968750e-04
1.012682914733886719e-03
1.010894775390625000e-03
9.638071060180664062e-04
1.085758209228515625e-03
1.037120819091796875e-03
1.033782958984375000e-03
1.009941101074218750e-03
1.021504402160644531e-03
1.002311706542968750e-03
9.670257568359375000e-04
9.622573852539062500e-04
9.528398513793945312e-04
1.004099845886230469e-03
9.754896163940429688e-04
9.666681289672851562e-04
9.888410568237304688e-04
9.812116622924804688e-04
9.572505950927734375e-04
9.924173355102539062e-04
9.353160858154296875e-04
9.711980819702148438e-04
1.056194305419921875e-03
1.014113426208496094e-03
1.068115234375000000e-03
1.073837280273437500e-03
1.075267791748046875e-03
1.024603843688964844e-03
9.959936141967773438e-04
9.500980377197265625e-04
7.976293563842773438e-04
8.264780044555664062e-04
8.656978607177734375e-04
8.553266525268554688e-04
8.627176284790039062e-04
7.621049880981445312e-04
8.345842361450195312e-04
8.460283279418945312e-04
7.745027542114257812e-04
7.816553115844726562e-04
8.594989776611328125e-04
8.288621902465820312e-04
7.475614547729492188e-04
8.176565170288085938e-04
7.405281066894531250e-04
7.550716400146484375e-04
7.590055465698242188e-04
7.709264755249023438e-04
7.635354995727539062e-04
7.725954055786132812e-04
7.405281066894531250e-04
7.141828536987304688e-04
7.828474044799804688e-04
7.394552230834960938e-04
7.417201995849609375e-04
6.990432739257812500e-04
7.321834564208984375e-04
7.275342941284179688e-04
6.685256958007812500e-04
6.183385848999023438e-04
6.520748138427734375e-04
6.051063537597656250e-04
6.420612335205078125e-04
6.417036056518554688e-04
6.155967712402343750e-04
5.632638931274414062e-04
5.648136138916015625e-04
5.556344985961914062e-04
5.580186843872070312e-04
5.276203155517578125e-04
4.830360412597656250e-04
5.351305007934570312e-04
4.104375839233398438e-04
4.323720932006835938e-04
4.304647445678710938e-04
4.053115844726562500e-04
3.790855407714843750e-04
3.749132156372070312e-04
4.355907440185546875e-04
3.204345703125000000e-04
2.760887145996093750e-04
2.567768096923828125e-04
2.374649047851562500e-04
3.067255020141601562e-04
2.456903457641601562e-04
3.088712692260742188e-04
2.199411392211914062e-04
-2.539157867431640625e-05
1.502037048339843750e-05
-1.907348632812500000e-05
1.788139343261718750e-06
-9.179115295410156250e-06
-1.370906829833984375e-05
-1.002550125122070312e-04
-2.400875091552734375e-04
-2.570152282714843750e-04
-2.490282058715820312e-04
-2.584457397460937500e-04
-2.413988113403320312e-04
-2.343654632568359375e-04
-2.487897872924804688e-04
-3.224611282348632812e-04
-3.215074539184570312e-04
-3.231763839721679688e-04
-2.962350845336914062e-04
-3.103017807006835938e-04
-2.974271774291992188e-04
-2.906322479248046875e-04
-4.162788391113281250e-04
-4.996061325073242188e-04
-4.957914352416992188e-04
-4.101991653442382812e-04
-4.258155822753906250e-04
-3.726482391357421875e-04
-4.174709320068359375e-04
-5.556344985961914062e-04
-5.760192871093750000e-04
-6.303787231445312500e-04
-6.469488143920898438e-04
-6.695985794067382812e-04
-6.734132766723632812e-04
-6.499290466308593750e-04
-7.184743881225585938e-04
-7.297992706298828125e-04
-7.531642913818359375e-04
-7.294416427612304688e-04
-7.493495941162109375e-04
-7.613897323608398438e-04
-7.381439208984375000e-04
-8.919239044189453125e-04
-9.582042694091796875e-04
-9.166002273559570312e-04
-9.187459945678710938e-04
-9.168386459350585938e-04
-9.683370590209960938e-04
-8.398294448852539062e-04
-1.001834869384765625e-03
-1.154184341430664062e-03
-1.038432121276855469e-03
-1.093506813049316406e-03
-1.038432121276855469e-03
-1.104474067687988281e-03
-1.090764999389648438e-03
-1.181602478027343750e-03
-1.271367073059082031e-03
-1.227378845214843750e-03
-1.235127449035644531e-03
-1.220464706420898438e-03
-1.234769821166992188e-03
-1.205801963806152344e-03
-1.319408416748046875e-03
-1.457929611206054688e-03
-1.411437988281250000e-03
-1.429915428161621094e-03
-1.361370086669921875e-03
-1.385807991027832031e-03
-1.383423805236816406e-03
-1.486659049987792969e-03
-1.633644104003906250e-03
-1.575231552124023438e-03
-1.596212387084960938e-03
-1.548886299133300781e-03
-1.541495323181152344e-03
-1.571297645568847656e-03
-1.526832580566406250e-03
-1.579999923706054688e-03
-1.481771469116210938e-03
-1.497745513916015625e-03
-1.512527465820312500e-03
-1.530766487121582031e-03
-1.498818397521972656e-03
-1.509189605712890625e-03
-1.599431037902832031e-03
-1.546502113342285156e-03
-1.592159271240234375e-03
-1.571893692016601562e-03
-1.556992530822753906e-03
-1.574754714965820312e-03
-1.544117927551269531e-03
-1.504302024841308594e-03
-1.550078392028808594e-03
-1.547932624816894531e-03
-1.556396484375000000e-03
-1.534104347229003906e-03
-1.538872718811035156e-03
-1.493453979492187500e-03
-1.487731933593750000e-03
-1.499652862548828125e-03
-1.453161239624023438e-03
-1.489520072937011719e-03
-1.467704772949218750e-03
-1.426458358764648438e-03
-1.445174217224121094e-03
-1.459479331970214844e-03
-1.442313194274902344e-03
-1.462459564208984375e-03
-1.476645469665527344e-03
-1.457929611206054688e-03
-1.468420028686523438e-03
-1.436114311218261719e-03
-1.412868499755859375e-03
-1.472949981689453125e-03
-1.438975334167480469e-03
-1.394629478454589844e-03
-1.411318778991699219e-03
-1.414418220520019531e-03
-1.383900642395019531e-03
-1.430034637451171875e-03
-1.532435417175292969e-03
-1.475811004638671875e-03
-1.456618309020996094e-03
-1.485347747802734375e-03
-1.464009284973144531e-03
-1.500487327575683594e-03
-1.444339752197265625e-03
-1.405119895935058594e-03
-1.402258872985839844e-03
-1.430392265319824219e-03
-1.444101333618164062e-03
-1.390218734741210938e-03
-1.366138458251953125e-03
-1.390814781188964844e-03
-1.428365707397460938e-03
-1.403689384460449219e-03
-1.365661621093750000e-03
-1.396656036376953125e-03
-1.360058784484863281e-03
-1.351356506347656250e-03
-1.412868499755859375e-03
-1.365542411804199219e-03
-1.327276229858398438e-03
-1.354217529296875000e-03
-1.354455947875976562e-03
-1.352071762084960938e-03
-1.346826553344726562e-03
-1.335501670837402344e-03
-1.316666603088378906e-03
-1.260042190551757812e-03
-1.290559768676757812e-03
-1.276135444641113281e-03
-1.294136047363281250e-03
-1.297235488891601562e-03
-1.305222511291503906e-03
-1.371026039123535156e-03
-1.279115676879882812e-03
-1.304507255554199219e-03
-1.316666603088378906e-03
-1.281499862670898438e-03
-1.294016838073730469e-03
-1.208186149597167969e-03
-1.301884651184082031e-03
-1.284360885620117188e-03
-1.237988471984863281e-03
-1.202225685119628906e-03
-1.230597496032714844e-03
-1.236677169799804688e-03
-1.183509826660156250e-03
-1.219749450683593750e-03
-1.158237457275390625e-03
-1.204490661621093750e-03
-1.238465309143066406e-03
-1.198053359985351562e-03
-1.193404197692871094e-03
-1.170635223388671875e-03
-1.181721687316894531e-03
-1.171112060546875000e-03
-1.198291778564453125e-03
-1.204371452331542969e-03
-1.170754432678222656e-03
-1.147866249084472656e-03
-1.144289970397949219e-03
-1.183032989501953125e-03
-1.175403594970703125e-03
-1.136541366577148438e-03
-1.099348068237304688e-03
-1.131653785705566406e-03
-1.120328903198242188e-03
-1.097321510314941406e-03
-1.124858856201171875e-03
-1.143217086791992188e-03
-1.134634017944335938e-03
-1.125335693359375000e-03
-1.132726669311523438e-03
-1.117825508117675781e-03
-1.104831695556640625e-03
-1.097917556762695312e-03
-1.114010810852050781e-03
-1.078724861145019531e-03
-1.062273979187011719e-03
-1.042723655700683594e-03
-1.126527786254882812e-03
-1.068830490112304688e-03
-1.076698303222656250e-03
-1.099824905395507812e-03
-1.076579093933105469e-03
-1.043081283569335938e-03
-1.116156578063964844e-03
-1.101493835449218750e-03
-1.031637191772460938e-03
-1.060366630554199219e-03
-9.952783584594726562e-04
-1.043081283569335938e-03
-1.076698303222656250e-03
-1.043081283569335938e-03
-9.859800338745117188e-04
-1.011013984680175781e-03
-1.020550727844238281e-03
-9.751319885253906250e-04
-9.925365447998046875e-04
-1.000881195068359375e-03
-1.003742218017578125e-03
-9.770393371582031250e-04
-1.029372215270996094e-03
-9.831190109252929688e-04
-9.857416152954101562e-04
-1.013398170471191406e-03
-9.772777557373046875e-04
-9.498596191406250000e-04
-1.022458076477050781e-03
-9.710788726806640625e-04
-9.453296661376953125e-04
-9.679794311523437500e-04
-9.896755218505859375e-04
-1.020073890686035156e-03
-9.332895278930664062e-04
-9.512901306152343750e-04
-9.878873825073242188e-04
-9.219646453857421875e-04
-9.336471557617187500e-04
-9.378194808959960938e-04
-9.213685989379882812e-04
-9.402036666870117188e-04
-9.282827377319335938e-04
-9.223222732543945312e-04
-8.630752563476562500e-04
-9.052753448486328125e-04
-9.037256240844726562e-04
-8.962154388427734375e-04
-8.984804153442382812e-04
-8.692741394042968750e-04
-8.382797241210937500e-04
-8.553266525268554688e-04
-8.840560913085937500e-04
-8.550882339477539062e-04
-8.373260498046875000e-04
-8.817911148071289062e-04
-8.773803710937500000e-04
-8.158683776855468750e-04
-7.752180099487304688e-04
-8.327960968017578125e-04
-8.211135864257812500e-04
-7.680654525756835938e-04
-7.729530334472656250e-04
-7.928609848022460938e-04
-7.735490798950195312e-04
-7.514953613281250000e-04
-8.548498153686523438e-04
-8.212327957153320312e-04
-7.772445678710937500e-04
-7.740259170532226562e-04
-8.351802825927734375e-04
-7.681846618652343750e-04
-7.385015487670898438e-04
-7.498264312744140625e-04
-7.410049438476562500e-04
-7.727146148681640625e-04
-7.262229919433593750e-04
-7.778406143188476562e-04
-7.635354995727539062e-04
-8.027553558349609375e-04
-7.644891738891601562e-04
-7.044076919555664062e-04
-7.300376892089843750e-04
-7.294416427612304688e-04
-7.233619689941406250e-04
-7.609128952026367188e-04
-7.236003875732421875e-04
-7.148981094360351562e-04
-6.988048553466796875e-04
-6.834268569946289062e-04
-7.132291793823242188e-04
-7.129907608032226562e-04
-7.034540176391601562e-04
-6.544589996337890625e-04
-6.891489028930664062e-04
-5.846023559570312500e-04
-6.396770477294921875e-04
-6.436109542846679688e-04
-6.685256958007812500e-04
-6.459951400756835938e-04
-7.339715957641601562e-04
-8.696317672729492188e-04
-8.877515792846679688e-04
-9.545087814331054688e-04
-9.460449218750000000e-04
-1.081585884094238281e-03
-1.170754432678222656e-03
-1.195192337036132812e-03
-1.276373863220214844e-03
-1.242160797119140625e-03
-1.296997070312500000e-03
-1.291394233703613281e-03
-1.297593116760253906e-03
-1.278162002563476562e-03
-1.221418380737304688e-03
-1.224875450134277344e-03
-1.207947731018066406e-03
-1.143097877502441406e-03
-1.037597656250000000e-03
-9.671449661254882812e-04
-7.654428482055664062e-04
-6.476640701293945312e-04
-6.197690963745117188e-04
-5.404949188232421875e-04
-4.274845123291015625e-04
-3.322362899780273438e-04
-2.735853195190429688e-04
-3.159046173095703125e-05
2.024173736572265625e-04
1.331567764282226562e-04
1.736879348754882812e-04
3.087520599365234375e-04
4.434585571289062500e-04
4.274845123291015625e-04
6.014108657836914062e-04
7.821321487426757812e-04
6.859302520751953125e-04
6.432533264160156250e-04
8.529424667358398438e-04
1.148819923400878906e-03
1.082658767700195312e-03
1.048088073730468750e-03
1.172661781311035156e-03
1.147389411926269531e-03
1.005887985229492188e-03
1.193881034851074219e-03
1.540064811706542969e-03
1.664638519287109375e-03
1.636862754821777344e-03
1.685976982116699219e-03
1.750707626342773438e-03
1.380562782287597656e-03
1.511096954345703125e-03
1.994371414184570312e-03
2.057075500488281250e-03
2.183437347412109375e-03
2.158999443054199219e-03
2.000451087951660156e-03
1.471281051635742188e-03
1.433134078979492188e-03
1.860380172729492188e-03
1.827478408813476562e-03
1.955151557922363281e-03
1.938223838806152344e-03
1.559376716613769531e-03
4.435777664184570312e-04
-5.912780761718750000e-05
2.192258834838867188e-04
-9.977817535400390625e-05
3.600120544433593750e-05
1.124143600463867188e-04
-4.937648773193359375e-04
-1.660704612731933594e-03
-2.361774444580078125e-03
-2.289533615112304688e-03
-2.858996391296386719e-03
-2.733826637268066406e-03
-2.575397491455078125e-03
-3.210186958312988281e-03
-3.987908363342285156e-03
-4.610061645507812500e-03
-4.721641540527343750e-03
-5.394101142883300781e-03
-5.276322364807128906e-03
-5.144119262695312500e-03
-5.686283111572265625e-03
-5.817532539367675781e-03
-5.971789360046386719e-03
-6.221175193786621094e-03
-6.806492805480957031e-03
-6.933331489562988281e-03
-6.654739379882812500e-03
-7.280111312866210938e-03
-5.315423011779785156e-03
-3.860116004943847656e-03
-4.346370697021484375e-03
-4.607677459716796875e-03
-4.868149757385253906e-03
-4.546642303466796875e-03
-5.200266838073730469e-03
-3.099083900451660156e-03
-8.481740951538085938e-04
-1.237392425537109375e-03
-1.403212547302246094e-03
-1.740813255310058594e-03
-1.538872718811035156e-03
-2.263903617858886719e-03
-1.529455184936523438e-04
2.790808677673339844e-03
2.389073371887207031e-03
2.414584159851074219e-03
1.970410346984863281e-03
2.027392387390136719e-03
1.148223876953125000e-03
2.988338470458984375e-03
6.455183029174804688e-03
6.163358688354492188e-03
6.265044212341308594e-03
5.815505981445312500e-03
5.698442459106445312e-03
4.829287528991699219e-03
6.253719329833984375e-03
1.029443740844726562e-02
1.026320457458496094e-02
1.037859916687011719e-02
9.979248046875000000e-03
9.818792343139648438e-03
9.242177009582519531e-03
1.027846336364746094e-02
1.478993892669677734e-02
1.493728160858154297e-02
1.501941680908203125e-02
1.487731933593750000e-02
1.486003398895263672e-02
1.456022262573242188e-02
1.513278484344482422e-02
2.014458179473876953e-02
2.060651779174804688e-02
2.039968967437744141e-02
2.048861980438232422e-02
2.051508426666259766e-02
2.046406269073486328e-02
2.040386199951171875e-02
2.547740936279296875e-02
2.620494365692138672e-02
2.565622329711914062e-02
2.598524093627929688e-02
2.587711811065673828e-02
2.602458000183105469e-02
2.554678916931152344e-02
3.054463863372802734e-02
3.174245357513427734e-02
3.099799156188964844e-02
3.152132034301757812e-02
3.124797344207763672e-02
3.152120113372802734e-02
3.057563304901123047e-02
3.533327579498291016e-02
3.715658187866210938e-02
3.608846664428710938e-02
3.667235374450683594e-02
3.610146045684814453e-02
3.642618656158447266e-02
3.528118133544921875e-02
3.971052169799804688e-02
4.226040840148925781e-02
4.107999801635742188e-02
4.173076152801513672e-02
4.091346263885498047e-02
4.140985012054443359e-02
4.021620750427246094e-02
4.410851001739501953e-02
4.733431339263916016e-02
4.585957527160644531e-02
4.631352424621582031e-02
4.533302783966064453e-02
4.574668407440185547e-02
4.475033283233642578e-02
4.788422584533691406e-02
5.161178112030029297e-02
5.006432533264160156e-02
5.040991306304931641e-02
4.945051670074462891e-02
4.977595806121826172e-02
4.897391796112060547e-02
5.157232284545898438e-02
5.594551563262939453e-02
5.405664443969726562e-02
5.403470993041992188e-02
5.347001552581787109e-02
5.432558059692382812e-02
5.395829677581787109e-02
5.592775344848632812e-02
6.071841716766357422e-02
5.961561203002929688e-02
5.959236621856689453e-02
5.945515632629394531e-02
5.983734130859375000e-02
5.948507785797119141e-02
6.113624572753906250e-02
6.625068187713623047e-02
6.589317321777343750e-02
6.565546989440917969e-02
6.552994251251220703e-02
6.541240215301513672e-02
6.500613689422607422e-02
6.610703468322753906e-02
7.118666172027587891e-02
7.147943973541259766e-02
7.110869884490966797e-02
7.105731964111328125e-02
7.065975666046142578e-02
7.033884525299072266e-02
7.105052471160888672e-02
7.540905475616455078e-02
7.640957832336425781e-02
7.635378837585449219e-02
7.658016681671142578e-02
7.627570629119873047e-02
7.633829116821289062e-02
7.668423652648925781e-02
7.913422584533691406e-02
7.991194725036621094e-02
7.993364334106445312e-02
8.017504215240478516e-02
7.979607582092285156e-02
7.973241806030273438e-02
7.939434051513671875e-02
7.684206962585449219e-02
7.549083232879638672e-02
7.549524307250976562e-02
7.545125484466552734e-02
7.523047924041748047e-02
7.487964630126953125e-02
7.476866245269775391e-02
7.030701637268066406e-02
6.782579421997070312e-02
6.817996501922607422e-02
6.829416751861572266e-02
6.849479675292968750e-02
6.825304031372070312e-02
6.874203681945800781e-02
6.378173828125000000e-02
6.060421466827392578e-02
6.129491329193115234e-02
6.109297275543212891e-02
6.132328510284423828e-02
6.081128120422363281e-02
6.167054176330566406e-02
5.707287788391113281e-02
5.319380760192871094e-02
5.405390262603759766e-02
5.353164672851562500e-02
5.370259284973144531e-02
5.314195156097412109e-02
5.419111251831054688e-02
5.025041103363037109e-02
4.575359821319580078e-02
4.654371738433837891e-02
4.587626457214355469e-02
4.611575603485107422e-02
4.568207263946533203e-02
4.666686058044433594e-02
4.359567165374755859e-02
3.844010829925537109e-02
3.918015956878662109e-02
3.854501247406005859e-02
3.888714313507080078e-02
3.869628906250000000e-02
3.944933414459228516e-02
3.701257705688476562e-02
3.119790554046630859e-02
3.161609172821044922e-02
3.099560737609863281e-02
3.118145465850830078e-02
3.100979328155517578e-02
3.136098384857177734e-02
2.967095375061035156e-02
2.352976799011230469e-02
2.358961105346679688e-02
2.337706089019775391e-02
2.340102195739746094e-02
2.346074581146240234e-02
2.377760410308837891e-02
2.294909954071044922e-02
1.699006557464599609e-02
1.701915264129638672e-02
1.727163791656494141e-02
1.730489730834960938e-02
1.746070384979248047e-02
1.755011081695556641e-02
1.732087135314941406e-02
1.117217540740966797e-02
1.054191589355468750e-02
1.102757453918457031e-02
1.092803478240966797e-02
1.105749607086181641e-02
1.090645790100097656e-02
1.107716560363769531e-02
4.883289337158203125e-03
3.635168075561523438e-03
4.348158836364746094e-03
4.128694534301757812e-03
4.488706588745117188e-03
4.239559173583984375e-03
4.761338233947753906e-03
-1.155614852905273438e-03
-3.080129623413085938e-03
-2.263665199279785156e-03
-2.540826797485351562e-03
-1.933097839355468750e-03
-2.321958541870117188e-03
-1.349687576293945312e-03
-6.930470466613769531e-03
-9.411096572875976562e-03
-8.322000503540039062e-03
-8.934974670410156250e-03
-8.252263069152832031e-03
-8.689045906066894531e-03
-7.468819618225097656e-03
-1.258051395416259766e-02
-1.569807529449462891e-02
-1.445412635803222656e-02
-1.519989967346191406e-02
-1.452815532684326172e-02
-1.504981517791748047e-02
-1.377475261688232422e-02
-1.844501495361328125e-02
-2.229297161102294922e-02
-2.075386047363281250e-02
-2.124869823455810547e-02
-2.055728435516357422e-02
-2.092301845550537109e-02
-1.978933811187744141e-02
-2.410864830017089844e-02
-2.857232093811035156e-02
-2.716958522796630859e-02
-2.744638919830322266e-02
-2.666902542114257812e-02
-2.687120437622070312e-02
-2.589941024780273438e-02
-2.969074249267578125e-02
-3.459846973419189453e-02
-3.380024433135986328e-02
-3.417515754699707031e-02
-3.364408016204833984e-02
-3.374552726745605469e-02
-3.306138515472412109e-02
-3.554582595825195312e-02
-3.936827182769775391e-02
-3.895306587219238281e-02
-3.924012184143066406e-02
-3.900623321533203125e-02
-3.869688510894775391e-02
-3.809523582458496094e-02
-3.796517848968505859e-02
-3.818356990814208984e-02
-3.757870197296142578e-02
-3.747987747192382812e-02
-3.746032714843750000e-02
-3.705370426177978516e-02
-3.666925430297851562e-02
-3.583288192749023438e-02
-3.454911708831787109e-02
-3.396487236022949219e-02
-3.382313251495361328e-02
-3.423404693603515625e-02
-3.398084640502929688e-02
-3.400802612304687500e-02
-3.340470790863037109e-02
-3.164637088775634766e-02
-3.132665157318115234e-02
-3.107309341430664062e-02
-3.125917911529541016e-02
-3.092014789581298828e-02
-3.100275993347167969e-02
-3.078532218933105469e-02
-2.890872955322265625e-02
-2.872788906097412109e-02
-2.853298187255859375e-02
-2.843022346496582031e-02
-2.803587913513183594e-02
-2.803993225097656250e-02
-2.789616584777832031e-02
-2.597129344940185547e-02
-2.576899528503417969e-02
-2.567219734191894531e-02
-2.556276321411132812e-02
-2.546811103820800781e-02
-2.553188800811767578e-02
-2.547228336334228516e-02
-2.362155914306640625e-02
-2.323067188262939453e-02
-2.324163913726806641e-02
-2.310931682586669922e-02
-2.323472499847412109e-02
-2.325177192687988281e-02
-2.315640449523925781e-02
-2.137327194213867188e-02
-2.071690559387207031e-02
-2.069234848022460938e-02
-2.042877674102783203e-02
-2.051162719726562500e-02
-2.047586441040039062e-02
-2.034056186676025391e-02
-1.891601085662841797e-02
-1.842308044433593750e-02
-1.840209960937500000e-02
-1.810801029205322266e-02
-1.830482482910156250e-02
-1.835393905639648438e-02
-1.830220222473144531e-02
-1.779055595397949219e-02
-1.774823665618896484e-02
-1.787996292114257812e-02
-1.764452457427978516e-02
-1.790058612823486328e-02
-1.806735992431640625e-02
-1.809620857238769531e-02
-1.795160770416259766e-02
-1.806652545928955078e-02
-1.825881004333496094e-02
-1.791441440582275391e-02
-1.800334453582763672e-02
-1.806986331939697266e-02
-1.801967620849609375e-02
-1.798915863037109375e-02
-1.802372932434082031e-02
-1.800775527954101562e-02
-1.764643192291259766e-02
-1.756000518798828125e-02
-1.744568347930908203e-02
-1.722383499145507812e-02
-1.697337627410888672e-02
-1.692569255828857422e-02
-1.695346832275390625e-02
-1.661336421966552734e-02
-1.649808883666992188e-02
-1.645565032958984375e-02
-1.633203029632568359e-02
-1.616418361663818359e-02
-1.597273349761962891e-02
-1.598763465881347656e-02
-1.584839820861816406e-02
-1.570701599121093750e-02
-1.582396030426025391e-02
-1.589858531951904297e-02
-1.581358909606933594e-02
-1.561927795410156250e-02
-1.563298702239990234e-02
-1.560449600219726562e-02
-1.536953449249267578e-02
-1.550722122192382812e-02
-1.569473743438720703e-02
-1.556444168090820312e-02
-1.540565490722656250e-02
-1.529586315155029297e-02
-1.529371738433837891e-02
-1.503419876098632812e-02
-1.502060890197753906e-02
-1.512885093688964844e-02
-1.478683948516845703e-02
-1.456987857818603516e-02
-1.449072360992431641e-02
-1.456761360168457031e-02
-1.430368423461914062e-02
-1.416969299316406250e-02
-1.420974731445312500e-02
-1.396930217742919922e-02
-1.381838321685791016e-02
-1.384615898132324219e-02
-1.390981674194335938e-02
-1.382172107696533203e-02
-1.375937461853027344e-02
-1.375889778137207031e-02
-1.357889175415039062e-02
-1.351773738861083984e-02
-1.361227035522460938e-02
-1.371943950653076172e-02
-1.348221302032470703e-02
-1.337420940399169922e-02
-1.351225376129150391e-02
-1.326179504394531250e-02
-1.331341266632080078e-02
-1.330888271331787109e-02
-1.329982280731201172e-02
-1.317298412322998047e-02
-1.306247711181640625e-02
-1.313233375549316406e-02
-1.286804676055908203e-02
-1.281797885894775391e-02
-1.291513442993164062e-02
-1.283717155456542969e-02
-1.285195350646972656e-02
-1.278412342071533203e-02
-1.283955574035644531e-02
-1.271498203277587891e-02
-1.261377334594726562e-02
-1.282000541687011719e-02
-1.268792152404785156e-02
-1.277983188629150391e-02
-1.276254653930664062e-02
-1.283288002014160156e-02
-1.278114318847656250e-02
-1.268637180328369141e-02
-1.284444332122802734e-02
-1.282894611358642578e-02
-1.295959949493408203e-02
-1.297819614410400391e-02
-1.302373409271240234e-02
-1.303577423095703125e-02
-1.293802261352539062e-02
-1.294374465942382812e-02
-1.277995109558105469e-02
-1.267552375793457031e-02
-1.256096363067626953e-02
-1.243579387664794922e-02
-1.236760616302490234e-02
-1.212322711944580078e-02
-1.222395896911621094e-02
-1.201510429382324219e-02
-1.193630695343017578e-02
-1.188385486602783203e-02
-1.170039176940917969e-02
-1.163041591644287109e-02
-1.132822036743164062e-02
-1.146781444549560547e-02
-1.144206523895263672e-02
-1.129496097564697266e-02
-1.133143901824951172e-02
-1.117706298828125000e-02
-1.122879981994628906e-02
-1.097154617309570312e-02
-1.104831695556640625e-02
-1.099145412445068359e-02
-1.085603237152099609e-02
-1.097738742828369141e-02
-1.079642772674560547e-02
-1.082038879394531250e-02
-1.064276695251464844e-02
-1.062464714050292969e-02
-1.047277450561523438e-02
-1.025831699371337891e-02
-1.029193401336669922e-02
-1.008331775665283203e-02
-1.013231277465820312e-02
-1.003384590148925781e-02
-9.939432144165039062e-03
-9.839057922363281250e-03
-9.608268737792968750e-03
-9.637117385864257812e-03
-9.505867958068847656e-03
-9.562849998474121094e-03
-9.415745735168457031e-03
-9.386658668518066406e-03
-9.371876716613769531e-03
-9.193181991577148438e-03
-9.223580360412597656e-03
-9.072542190551757812e-03
-9.071946144104003906e-03
-9.023666381835937500e-03
-8.959412574768066406e-03
-8.972167968750000000e-03
-8.920431137084960938e-03
-8.880853652954101562e-03
-8.775353431701660156e-03
-8.741021156311035156e-03
-8.684635162353515625e-03
-8.580684661865234375e-03
-8.549451828002929688e-03
-8.533358573913574219e-03
-8.527159690856933594e-03
-8.450984954833984375e-03
-8.356690406799316406e-03
-8.309006690979003906e-03
-8.239507675170898438e-03
-8.249759674072265625e-03
-8.229136466979980469e-03
-8.149266242980957031e-03
-8.170485496520996094e-03
-8.138537406921386719e-03
-8.152365684509277344e-03
-8.114814758300781250e-03
-8.059263229370117188e-03
-8.065104484558105469e-03
-8.070826530456542969e-03
-8.086085319519042969e-03
-8.042931556701660156e-03
-8.081912994384765625e-03
-8.159041404724121094e-03
-8.146762847900390625e-03
-8.060455322265625000e-03
-8.113503456115722656e-03
-8.114814758300781250e-03
-8.118033409118652344e-03
-8.141398429870605469e-03
-8.189082145690917969e-03
-8.121013641357421875e-03
-8.025407791137695312e-03
-7.980346679687500000e-03
-7.932901382446289062e-03
-7.746934890747070312e-03
-7.636308670043945312e-03
-7.640361785888671875e-03
-7.556319236755371094e-03
-7.402539253234863281e-03
-7.500529289245605469e-03
-7.369756698608398438e-03
-7.122874259948730469e-03
-7.129073143005371094e-03
-7.130980491638183594e-03
-7.028937339782714844e-03
-6.947875022888183594e-03
-7.020950317382812500e-03
-6.868004798889160156e-03
-6.798028945922851562e-03
-6.745934486389160156e-03
-6.807327270507812500e-03
-6.694674491882324219e-03
-6.620645523071289062e-03
-6.721496582031250000e-03
-6.558895111083984375e-03
-6.394028663635253906e-03
-6.474614143371582031e-03
-6.521463394165039062e-03
-6.418108940124511719e-03
-6.384491920471191406e-03
-6.401181221008300781e-03
-6.272315979003906250e-03
-6.080865859985351562e-03
-6.109595298767089844e-03
-6.139636039733886719e-03
-5.979537963867187500e-03
-5.941987037658691406e-03
-5.999565124511718750e-03
-5.886554718017578125e-03
-5.738854408264160156e-03
-5.729317665100097656e-03
-5.699396133422851562e-03
-5.631685256958007812e-03
-5.588889122009277344e-03
-5.559802055358886719e-03
-5.580782890319824219e-03
-5.411028861999511719e-03
-5.334973335266113281e-03
-5.358219146728515625e-03
-5.194664001464843750e-03
-5.108952522277832031e-03
-5.237817764282226562e-03
-5.180954933166503906e-03
-5.081295967102050781e-03
-5.030870437622070312e-03
-5.102396011352539062e-03
-4.807949066162109375e-03
-4.620790481567382812e-03
-4.745602607727050781e-03
-4.735350608825683594e-03
-4.725217819213867188e-03
-4.653811454772949219e-03
-4.757761955261230469e-03
-4.276156425476074219e-03
-3.944873809814453125e-03
-4.077672958374023438e-03
-4.099011421203613281e-03
-4.070997238159179688e-03
-4.023194313049316406e-03
-4.153013229370117188e-03
-3.695726394653320312e-03
-3.275275230407714844e-03
-3.388285636901855469e-03
-3.472685813903808594e-03
-3.495335578918457031e-03
-3.383755683898925781e-03
-3.670454025268554688e-03
-3.211021423339843750e-03
-2.670764923095703125e-03
-2.860903739929199219e-03
-2.926707267761230469e-03
-2.961754798889160156e-03
-2.955436706542968750e-03
-3.198385238647460938e-03
-2.821087837219238281e-03
-2.275466918945312500e-03
-2.388119697570800781e-03
-2.427339553833007812e-03
-2.359032630920410156e-03
-2.341985702514648438e-03
-2.614855766296386719e-03
-2.241730690002441406e-03
-1.550555229187011719e-03
-1.622557640075683594e-03
-1.650333404541015625e-03
-1.686334609985351562e-03
-1.620411872863769531e-03
-1.881241798400878906e-03
-1.678824424743652344e-03
-9.622573852539062500e-04
-9.579658508300781250e-04
-9.633302688598632812e-04
-9.965896606445312500e-04
-1.051902770996093750e-03
-1.286506652832031250e-03
-1.098394393920898438e-03
-3.886222839355468750e-04
-4.202127456665039062e-04
-4.090070724487304688e-04
-4.221200942993164062e-04
-3.880262374877929688e-04
-5.861520767211914062e-04
-6.194114685058593750e-04
1.171827316284179688e-04
1.571178436279296875e-04
1.310110092163085938e-04
1.020431518554687500e-04
1.668930053710937500e-06
-6.914138793945312500e-05
-1.177787780761718750e-04
5.135536193847656250e-04
5.676746368408203125e-04
5.286931991577148438e-04
5.172491073608398438e-04
4.764795303344726562e-04
4.158020019531250000e-04
2.614259719848632812e-04
8.976459503173828125e-04
9.990930557250976562e-04
8.528232574462890625e-04
7.703304290771484375e-04
7.935762405395507812e-04
7.416009902954101562e-04
5.631446838378906250e-04
1.054525375366210938e-03
1.149415969848632812e-03
1.019001007080078125e-03
9.834766387939453125e-04
8.761882781982421875e-04
8.249282836914062500e-04
6.511211395263671875e-04
1.116037368774414062e-03
1.308917999267578125e-03
1.112103462219238281e-03
1.133322715759277344e-03
9.826421737670898438e-04
8.876323699951171875e-04
6.897449493408203125e-04
1.135826110839843750e-03
1.436591148376464844e-03
1.212358474731445312e-03
1.188874244689941406e-03
1.009225845336914062e-03
9.559392929077148438e-04
7.699728012084960938e-04
1.072287559509277344e-03
1.444697380065917969e-03
1.262068748474121094e-03
1.222968101501464844e-03
1.073360443115234375e-03
9.716749191284179688e-04
8.306503295898437500e-04
1.080989837646484375e-03
1.489520072937011719e-03
1.340389251708984375e-03
1.257777214050292969e-03
1.092433929443359375e-03
9.963512420654296875e-04
8.693933486938476562e-04
9.764432907104492188e-04
1.421451568603515625e-03
1.285552978515625000e-03
1.198530197143554688e-03
1.157760620117187500e-03
1.070022583007812500e-03
8.990764617919921875e-04
1.055240631103515625e-03
1.659989356994628906e-03
1.585125923156738281e-03
1.495242118835449219e-03
1.499056816101074219e-03
1.354455947875976562e-03
1.180529594421386719e-03
1.267313957214355469e-03
1.904726028442382812e-03
1.934528350830078125e-03
1.771569252014160156e-03
1.785635948181152344e-03
1.682043075561523438e-03
1.560330390930175781e-03
1.577496528625488281e-03
2.138257026672363281e-03
2.213239669799804688e-03
2.083659172058105469e-03
2.060174942016601562e-03
2.011656761169433594e-03
1.914620399475097656e-03
1.811146736145019531e-03
2.590417861938476562e-03
2.730369567871093750e-03
2.566337585449218750e-03
2.551198005676269531e-03
2.436041831970214844e-03
2.247095108032226562e-03
2.185225486755371094e-03
2.706408500671386719e-03
2.809762954711914062e-03
2.692341804504394531e-03
2.655506134033203125e-03
2.581954002380371094e-03
2.438664436340332031e-03
2.282738685607910156e-03
2.713799476623535156e-03
2.948045730590820312e-03
2.762556076049804688e-03
2.746105194091796875e-03
2.620100975036621094e-03
2.491712570190429688e-03
2.323865890502929688e-03
2.632141113281250000e-03
2.903699874877929688e-03
2.736091613769531250e-03
2.700567245483398438e-03
2.643346786499023438e-03
2.518296241760253906e-03
2.342700958251953125e-03
2.596855163574218750e-03
2.930521965026855469e-03
2.784729003906250000e-03
2.700090408325195312e-03
2.577066421508789062e-03
2.531409263610839844e-03
2.353787422180175781e-03
2.625107765197753906e-03
2.913713455200195312e-03
2.761721611022949219e-03
2.775311470031738281e-03
2.634763717651367188e-03
2.587914466857910156e-03
2.421021461486816406e-03
2.602815628051757812e-03
2.904772758483886719e-03
2.804636955261230469e-03
2.795100212097167969e-03
2.749562263488769531e-03
2.589821815490722656e-03
2.489089965820312500e-03
2.695322036743164062e-03
2.984881401062011719e-03
2.887725830078125000e-03
2.897739410400390625e-03
2.849698066711425781e-03
2.746105194091796875e-03
2.697587013244628906e-03
2.769470214843750000e-03
3.102898597717285156e-03
3.091573715209960938e-03
3.073573112487792969e-03
3.053069114685058594e-03
2.938508987426757812e-03
2.888560295104980469e-03
2.923727035522460938e-03
3.127336502075195312e-03
3.167271614074707031e-03
3.100633621215820312e-03
3.103375434875488281e-03
2.963781356811523438e-03
2.929925918579101562e-03
2.915978431701660156e-03
3.133654594421386719e-03
3.172636032104492188e-03
3.088593482971191406e-03
3.132581710815429688e-03
2.995967864990234375e-03
3.038644790649414062e-03
2.954125404357910156e-03
3.113269805908203125e-03
3.113150596618652344e-03
3.153800964355468750e-03
3.247261047363281250e-03
3.091216087341308594e-03
3.074288368225097656e-03
3.093957901000976562e-03
3.141164779663085938e-03
3.111600875854492188e-03
3.070592880249023438e-03
3.102421760559082031e-03
3.058671951293945312e-03
2.989292144775390625e-03
2.997517585754394531e-03
3.095269203186035156e-03
3.186702728271484375e-03
3.130555152893066406e-03
3.139972686767578125e-03
3.089547157287597656e-03
3.072857856750488281e-03
3.082156181335449219e-03
3.032445907592773438e-03
3.050923347473144531e-03
3.044009208679199219e-03
3.043532371520996094e-03
3.016710281372070312e-03
2.996921539306640625e-03
2.975225448608398438e-03
3.053188323974609375e-03
3.118276596069335938e-03
3.069639205932617188e-03
3.089070320129394531e-03
3.037214279174804688e-03
3.015995025634765625e-03
3.013372421264648438e-03
3.011345863342285156e-03
3.056883811950683594e-03
2.983570098876953125e-03
3.010153770446777344e-03
2.969503402709960938e-03
2.899408340454101562e-03
2.894282341003417969e-03
2.962589263916015625e-03
3.090500831604003906e-03
3.102064132690429688e-03
3.049850463867187500e-03
3.024101257324218750e-03
2.960801124572753906e-03
2.969503402709960938e-03
2.927899360656738281e-03
2.999544143676757812e-03
3.013253211975097656e-03
2.972841262817382812e-03
2.969980239868164062e-03
2.882003784179687500e-03
2.887606620788574219e-03
2.863168716430664062e-03
3.028750419616699219e-03
3.095030784606933594e-03
3.036260604858398438e-03
3.011703491210937500e-03
2.938628196716308594e-03
2.951979637145996094e-03
2.971410751342773438e-03
2.949953079223632812e-03
2.995133399963378906e-03
2.978444099426269531e-03
2.916932106018066406e-03
2.902150154113769531e-03
2.872467041015625000e-03
2.862691879272460938e-03
2.956867218017578125e-03
2.908825874328613281e-03
2.886533737182617188e-03
2.862095832824707031e-03
2.883195877075195312e-03
2.839088439941406250e-03
2.853274345397949219e-03
2.965450286865234375e-03
2.948999404907226562e-03
2.979040145874023438e-03
2.921462059020996094e-03
2.850890159606933594e-03
2.887487411499023438e-03
2.855181694030761719e-03
2.874016761779785156e-03
2.869367599487304688e-03
2.812027931213378906e-03
2.797365188598632812e-03
2.820372581481933594e-03
2.845048904418945312e-03
2.841711044311523438e-03
2.851247787475585938e-03
2.846360206604003906e-03
2.788543701171875000e-03
2.756118774414062500e-03
2.838611602783203125e-03
2.824425697326660156e-03
2.746701240539550781e-03
2.794265747070312500e-03
2.736926078796386719e-03
2.686381340026855469e-03
2.718210220336914062e-03
2.705216407775878906e-03
2.750992774963378906e-03
2.696514129638671875e-03
2.732872962951660156e-03
2.723336219787597656e-03
2.658247947692871094e-03
2.671360969543457031e-03
2.670049667358398438e-03
2.650141716003417969e-03
2.646327018737792969e-03
2.623677253723144531e-03
2.627015113830566406e-03
2.565264701843261719e-03
2.499103546142578125e-03
2.516031265258789062e-03
2.449035644531250000e-03
2.485036849975585938e-03
2.551078796386718750e-03
2.520680427551269531e-03
2.476334571838378906e-03
2.478122711181640625e-03
2.484917640686035156e-03
2.431869506835937500e-03
2.450108528137207031e-03
2.468109130859375000e-03
2.455115318298339844e-03
2.436518669128417969e-03
2.402544021606445312e-03
2.385139465332031250e-03
2.380967140197753906e-03
2.371668815612792969e-03
2.431869506835937500e-03
2.285122871398925781e-03
2.243161201477050781e-03
2.201914787292480469e-03
2.280592918395996094e-03
2.159237861633300781e-03
2.083897590637207031e-03
2.164006233215332031e-03
2.196192741394042969e-03
2.232074737548828125e-03
1.809000968933105469e-03
1.780033111572265625e-03
1.764655113220214844e-03
2.095222473144531250e-03
2.221345901489257812e-03
2.057790756225585938e-03
2.086281776428222656e-03
2.072215080261230469e-03
2.071022987365722656e-03
2.019524574279785156e-03
2.082586288452148438e-03
2.020001411437988281e-03
2.020597457885742188e-03
2.033114433288574219e-03
2.056956291198730469e-03
1.978158950805664062e-03
1.969337463378906250e-03
1.974105834960937500e-03
1.970529556274414062e-03
1.928567886352539062e-03
1.891136169433593750e-03
1.880645751953125000e-03
1.888275146484375000e-03
1.834154129028320312e-03
1.822948455810546875e-03
1.872539520263671875e-03
1.849293708801269531e-03
1.804351806640625000e-03
1.837491989135742188e-03
1.859426498413085938e-03
1.893997192382812500e-03
1.804471015930175781e-03
1.797080039978027344e-03
1.769185066223144531e-03
1.643300056457519531e-03
1.744627952575683594e-03
1.722216606140136719e-03
1.732110977172851562e-03
1.651167869567871094e-03
1.659989356994628906e-03
1.704573631286621094e-03
1.665830612182617188e-03
1.629114151000976562e-03
1.673817634582519531e-03
1.714706420898437500e-03
1.644968986511230469e-03
1.641869544982910156e-03
1.627802848815917969e-03
1.523494720458984375e-03
1.495599746704101562e-03
1.486182212829589844e-03
1.465916633605957031e-03
1.489400863647460938e-03
1.480937004089355469e-03
1.449704170227050781e-03
1.361250877380371094e-03
1.332759857177734375e-03
1.407742500305175781e-03
1.395106315612792969e-03
1.377701759338378906e-03
1.388549804687500000e-03
1.349925994873046875e-03
1.226305961608886719e-03
1.260757446289062500e-03
1.205205917358398438e-03
1.252412796020507812e-03
1.188039779663085938e-03
1.154303550720214844e-03
1.214623451232910156e-03
1.033306121826171875e-03
1.035332679748535156e-03
9.957551956176757812e-04
9.782314300537109375e-04
9.629726409912109375e-04
9.669065475463867188e-04
9.323358535766601562e-04
7.880926132202148438e-04
8.212327957153320312e-04
7.888078689575195312e-04
7.715225219726562500e-04
7.596015930175781250e-04
7.535219192504882812e-04
7.382631301879882812e-04
5.193948745727539062e-04
5.789995193481445312e-04
6.309747695922851562e-04
5.732774734497070312e-04
5.561113357543945312e-04
5.834102630615234375e-04
5.170106887817382812e-04
3.327131271362304688e-04
3.056526184082031250e-04
3.863573074340820312e-04
3.658533096313476562e-04
2.949237823486328125e-04
3.031492233276367188e-04
3.579854965209960938e-04
1.307725906372070312e-04
1.119375228881835938e-04
1.977682113647460938e-04
1.308917999267578125e-04
1.822710037231445312e-04
9.548664093017578125e-05
1.590251922607421875e-04
-2.014636993408203125e-05
-4.696846008300781250e-05
-1.943111419677734375e-05
-9.107589721679687500e-05
-4.899501800537109375e-05
-1.176595687866210938e-04
-3.695487976074218750e-05
-1.598596572875976562e-04
-3.247261047363281250e-04
-2.239942550659179688e-04
-2.481937408447265625e-04
-2.876520156860351562e-04
-3.250837326049804688e-04
-2.619028091430664062e-04
-3.428459167480468750e-04
-5.184412002563476562e-04
-4.270076751708984375e-04
-5.182027816772460938e-04
-4.501342773437500000e-04
-4.428625106811523438e-04
-4.054307937622070312e-04
-6.930828094482421875e-04
-8.803606033325195312e-04
-8.468627929687500000e-04
-9.386539459228515625e-04
-8.764266967773437500e-04
-8.707046508789062500e-04
-7.736682891845703125e-04
-8.878707885742187500e-04
-1.060128211975097656e-03
-1.087427139282226562e-03
-9.824037551879882812e-04
-1.042962074279785156e-03
-1.064300537109375000e-03
-1.047492027282714844e-03
-1.044273376464843750e-03
-1.223683357238769531e-03
-1.236557960510253906e-03
-1.222729682922363281e-03
-1.220703125000000000e-03
-1.224398612976074219e-03
-1.215219497680664062e-03
-1.320719718933105469e-03
-1.439213752746582031e-03
-1.411914825439453125e-03
-1.446843147277832031e-03
-1.349210739135742188e-03
-1.354098320007324219e-03
-1.391768455505371094e-03
-1.447558403015136719e-03
-1.513481140136718750e-03
-1.476407051086425781e-03
-1.494288444519042969e-03
-1.465439796447753906e-03
-1.491904258728027344e-03
-1.495361328125000000e-03
-1.530051231384277344e-03
-1.706480979919433594e-03
-1.650333404541015625e-03
-1.616597175598144531e-03
-1.631855964660644531e-03
-1.630306243896484375e-03
-1.601099967956542969e-03
-1.657843589782714844e-03
-1.837849617004394531e-03
-1.854181289672851562e-03
-1.765251159667968750e-03
-1.801609992980957031e-03
-1.851081848144531250e-03
-1.809716224670410156e-03
-1.809954643249511719e-03
-1.933097839355468750e-03
-2.011895179748535156e-03
-2.004027366638183594e-03
-1.969695091247558594e-03
-1.929521560668945312e-03
-1.972198486328125000e-03
-1.927733421325683594e-03
-2.044439315795898438e-03
-2.183556556701660156e-03
-2.089262008666992188e-03
-2.146363258361816406e-03
-2.110242843627929688e-03
-2.036929130554199219e-03
-2.092003822326660156e-03
-2.200245857238769531e-03
-2.179622650146484375e-03
-2.172708511352539062e-03
-2.191662788391113281e-03
-2.194046974182128906e-03
-2.203941345214843750e-03
-2.167820930480957031e-03
-2.310276031494140625e-03
-2.399563789367675781e-03
-2.330660820007324219e-03
-2.380490303039550781e-03
-2.345919609069824219e-03
-2.299785614013671875e-03
-2.315044403076171875e-03
-2.422451972961425781e-03
-2.551555633544921875e-03
-2.495169639587402344e-03
-2.491593360900878906e-03
-2.472281455993652344e-03
-2.505183219909667969e-03
-2.503514289855957031e-03
-2.535343170166015625e-03
-2.689123153686523438e-03
-2.619981765747070312e-03
-2.604603767395019531e-03
-2.616047859191894531e-03
-2.634763717651367188e-03
-2.590894699096679688e-03
-2.688407897949218750e-03
-2.843022346496582031e-03
-2.826809883117675781e-03
-2.805233001708984375e-03
-2.793192863464355469e-03
-2.778053283691406250e-03
-2.772688865661621094e-03
-2.871274948120117188e-03
-2.956151962280273438e-03
-2.970695495605468750e-03
-2.912044525146484375e-03
-2.883195877075195312e-03
-2.992033958435058594e-03
-2.929687500000000000e-03
-2.900838851928710938e-03
-3.101468086242675781e-03
-3.048658370971679688e-03
-3.071427345275878906e-03
-3.073096275329589844e-03
-3.093838691711425781e-03
-3.050923347473144531e-03
-3.113508224487304688e-03
-3.269672393798828125e-03
-3.267884254455566406e-03
-3.281712532043457031e-03
-3.215432167053222656e-03
-3.238797187805175781e-03
-3.173708915710449219e-03
-3.128409385681152344e-03
-3.321647644042968750e-03
-3.411412239074707031e-03
-3.319025039672851562e-03
-3.333687782287597656e-03
-3.357887268066406250e-03
-3.362894058227539062e-03
-3.379940986633300781e-03
-3.442406654357910156e-03
-3.473043441772460938e-03
-3.502488136291503906e-03
-3.498673439025878906e-03
-3.439426422119140625e-03
-3.463983535766601562e-03
-3.457069396972656250e-03
-3.649830818176269531e-03
-3.658652305603027344e-03
-3.627896308898925781e-03
-3.639936447143554688e-03
-3.589749336242675781e-03
-3.634214401245117188e-03
-3.571271896362304688e-03
-3.598690032958984375e-03
-3.578186035156250000e-03
-3.544092178344726562e-03
-3.521203994750976562e-03
-3.552079200744628906e-03
-3.488540649414062500e-03
-3.522396087646484375e-03
-3.537297248840332031e-03
-3.481507301330566406e-03
-3.450870513916015625e-03
-3.416061401367187500e-03
-3.407597541809082031e-03
-3.429651260375976562e-03
-3.424525260925292969e-03
-3.443479537963867188e-03
-3.396868705749511719e-03
-3.358960151672363281e-03
-3.377199172973632812e-03
-3.390312194824218750e-03
-3.337740898132324219e-03
-3.340005874633789062e-03
-3.355860710144042969e-03
-3.302574157714843750e-03
-3.334283828735351562e-03
-3.326535224914550781e-03
-3.303885459899902344e-03
-3.296136856079101562e-03
-3.352999687194824219e-03
-3.299117088317871094e-03
-3.242850303649902344e-03
-3.294110298156738281e-03
-3.224134445190429688e-03
-3.238201141357421875e-03
-3.259897232055664062e-03
-3.199815750122070312e-03
-3.213644027709960938e-03
-3.211259841918945312e-03
-3.229737281799316406e-03
-3.176808357238769531e-03
-3.216624259948730469e-03
-3.250360488891601562e-03
-3.174543380737304688e-03
-3.184556961059570312e-03
-3.185510635375976562e-03
-3.177165985107421875e-03
-3.194212913513183594e-03
-3.099799156188964844e-03
-3.143906593322753906e-03
-3.148317337036132812e-03
-3.086566925048828125e-03
-3.083229064941406250e-03
-3.120779991149902344e-03
-3.097772598266601562e-03
-3.074884414672851562e-03
-3.108620643615722656e-03
-3.115653991699218750e-03
-3.129601478576660156e-03
-3.048777580261230469e-03
-3.043651580810546875e-03
-3.076672554016113281e-03
-3.084301948547363281e-03
-3.031611442565917969e-03
-2.998709678649902344e-03
-2.996087074279785156e-03
-2.973437309265136719e-03
-3.015518188476562500e-03
-2.966642379760742188e-03
-2.938270568847656250e-03
-2.981543540954589844e-03
-2.934813499450683594e-03
-2.994060516357421875e-03
-2.967000007629394531e-03
-2.916336059570312500e-03
-2.905488014221191406e-03
-2.925872802734375000e-03
-2.914547920227050781e-03
-2.898573875427246094e-03
-2.889871597290039062e-03
-2.872467041015625000e-03
-2.879023551940917969e-03
-2.855896949768066406e-03
-2.852320671081542969e-03
-2.869248390197753906e-03
-2.868175506591796875e-03
-2.836108207702636719e-03
-2.801895141601562500e-03
-2.801656723022460938e-03
-2.795100212097167969e-03
-2.811551094055175781e-03
-2.790808677673339844e-03
-2.799034118652343750e-03
-2.742886543273925781e-03
-2.726316452026367188e-03
-2.719283103942871094e-03
-2.718091011047363281e-03
-2.717137336730957031e-03
-2.743244171142578125e-03
-2.706408500671386719e-03
-2.658009529113769531e-03
-2.731442451477050781e-03
-2.661347389221191406e-03
-2.633929252624511719e-03
-2.674221992492675781e-03
-2.644777297973632812e-03
-2.709507942199707031e-03
-2.627611160278320312e-03
-2.696633338928222656e-03
-2.664327621459960938e-03
-2.568721771240234375e-03
-2.640008926391601562e-03
-2.582550048828125000e-03
-2.563238143920898438e-03
-2.627611160278320312e-03
-2.567410469055175781e-03
-2.655744552612304688e-03
-2.597689628601074219e-03
-2.560734748840332031e-03
-2.510905265808105469e-03
-2.481818199157714844e-03
-2.590775489807128906e-03
-2.583503723144531250e-03
-2.525925636291503906e-03
-2.457737922668457031e-03
-2.463102340698242188e-03
-2.450585365295410156e-03
-2.534627914428710938e-03
-2.466678619384765625e-03
-2.522826194763183594e-03
-2.489089965820312500e-03
-2.453684806823730469e-03
-2.452731132507324219e-03
-2.412676811218261719e-03
-2.431869506835937500e-03
-2.434015274047851562e-03
-2.436757087707519531e-03
-2.398252487182617188e-03
-2.433657646179199219e-03
-2.379059791564941406e-03
-2.433061599731445312e-03
-2.419948577880859375e-03
-2.369523048400878906e-03
-2.378106117248535156e-03
-2.333641052246093750e-03
-2.338647842407226562e-03
-2.347469329833984375e-03
-2.343893051147460938e-03
-2.313137054443359375e-03
-2.310633659362792969e-03
-2.284407615661621094e-03
-2.291917800903320312e-03
-2.306580543518066406e-03
-2.274990081787109375e-03
-2.261638641357421875e-03
-2.267956733703613281e-03
-2.249479293823242188e-03
-2.214550971984863281e-03
-2.224683761596679688e-03
-2.217888832092285156e-03
-2.230882644653320312e-03
-2.263784408569335938e-03
-2.239227294921875000e-03
-2.202033996582031250e-03
-2.194643020629882812e-03
-2.215743064880371094e-03
-2.242803573608398438e-03
-2.183318138122558594e-03
-2.206087112426757812e-03
-2.159714698791503906e-03
-2.201914787292480469e-03
-2.217650413513183594e-03
-2.174854278564453125e-03
-2.146244049072265625e-03
-2.162218093872070312e-03
-2.187252044677734375e-03
-2.090215682983398438e-03
-2.114653587341308594e-03
-2.063512802124023438e-03
-2.096772193908691406e-03
-2.123236656188964844e-03
-2.098321914672851562e-03
-2.079963684082031250e-03
-2.055048942565917969e-03
-2.100229263305664062e-03
-2.086520195007324219e-03
-2.064585685729980469e-03
-2.060651779174804688e-03
-2.025961875915527344e-03
-2.012133598327636719e-03
-2.041578292846679688e-03
-2.016663551330566406e-03
-1.987338066101074219e-03
-2.030491828918457031e-03
-1.862764358520507812e-03
-1.788973808288574219e-03
-1.831531524658203125e-03
-1.775622367858886719e-03
-1.805186271667480469e-03
-1.816391944885253906e-03
-1.811981201171875000e-03
-1.595377922058105469e-03
-1.533985137939453125e-03
-1.561045646667480469e-03
-1.545190811157226562e-03
-1.578330993652343750e-03
-1.551985740661621094e-03
-1.623749732971191406e-03
-1.412510871887207031e-03
-1.279592514038085938e-03
-1.353859901428222656e-03
-1.316189765930175781e-03
-1.332521438598632812e-03
-1.298069953918457031e-03
-1.296162605285644531e-03
-1.206278800964355469e-03
-1.060605049133300781e-03
-1.079797744750976562e-03
-1.046299934387207031e-03
-1.086831092834472656e-03
-1.085519790649414062e-03
-1.098513603210449219e-03
-9.697675704956054688e-04
-8.851289749145507812e-04
-8.667707443237304688e-04
-8.509159088134765625e-04
-8.997917175292968750e-04
-8.935928344726562500e-04
-8.730888366699218750e-04
-7.833242416381835938e-04
-6.664991378784179688e-04
-6.525516510009765625e-04
-6.572008132934570312e-04
-6.732940673828125000e-04
-6.319284439086914062e-04
-6.620883941650390625e-04
-6.271600723266601562e-04
-5.321502685546875000e-04
-5.339384078979492188e-04
-5.694627761840820312e-04
-5.851984024047851562e-04
-4.698038101196289062e-04
-5.698204040527343750e-04
-4.998445510864257812e-04
-3.186464309692382812e-04
-3.122091293334960938e-04
-3.087520599365234375e-04
-3.612041473388671875e-04
-3.814697265625000000e-04
-3.774166107177734375e-04
-2.329349517822265625e-04
-1.062154769897460938e-04
-8.010864257812500000e-05
-1.097917556762695312e-04
-1.312494277954101562e-04
-6.520748138427734375e-05
-7.402896881103515625e-05
-1.003742218017578125e-04
-7.867813110351562500e-06
-8.344650268554687500e-07
-6.437301635742187500e-06
-1.060962677001953125e-05
-5.161762237548828125e-05
-5.745887756347656250e-05
-9.775161743164062500e-06
9.250640869140625000e-05
1.679658889770507812e-04
1.616477966308593750e-04
1.846551895141601562e-04
2.053976058959960938e-04
1.887083053588867188e-04
1.708269119262695312e-04
4.148483276367187500e-04
5.300045013427734375e-04
5.007982254028320312e-04
4.774332046508789062e-04
4.634857177734375000e-04
5.457401275634765625e-04
4.963874816894531250e-04
5.952119827270507812e-04
5.820989608764648438e-04
6.017684936523437500e-04
6.082057952880859375e-04
5.767345428466796875e-04
5.713701248168945312e-04
5.842447280883789062e-04
6.816387176513671875e-04
6.966590881347656250e-04
6.611347198486328125e-04
6.675720214843750000e-04
6.676912307739257812e-04
6.713867187500000000e-04
6.587505340576171875e-04
6.496906280517578125e-04
7.194280624389648438e-04
7.634162902832031250e-04
7.759332656860351562e-04
7.987022399902343750e-04
7.594823837280273438e-04
7.488727569580078125e-04
8.058547973632812500e-04
8.031129837036132812e-04
8.314847946166992188e-04
8.742809295654296875e-04
8.862018585205078125e-04
8.730888366699218750e-04
8.808374404907226562e-04
8.637905120849609375e-04
7.811784744262695312e-04
8.207559585571289062e-04
8.212327957153320312e-04
8.245706558227539062e-04
7.556676864624023438e-04
7.702112197875976562e-04
8.243322372436523438e-04
8.765459060668945312e-04
9.042024612426757812e-04
8.938312530517578125e-04
8.975267410278320312e-04
8.741617202758789062e-04
8.832216262817382812e-04
9.261369705200195312e-04
8.912086486816406250e-04
8.933544158935546875e-04
8.745193481445312500e-04
8.648633956909179688e-04
