0.000000000000000000e+00
0.000000000000000000e+00
0.000000000000000000e+00
0.000000000000000000e+00
0.000000000000000000e+00
0.000000000000000000e+00
0.000000000000000000e+00
0.000000000000000000e+00
0.000000000000000000e+00
0.000000000000000000e+00
0.000000000000000000e+00
0.000000000000000000e+00
0.000000000000000000e+00
0.000000000000000000e+00
0.000000000000000000e+00
0.000000000000000000e+00
0.000000000000000000e+00
0.000000000000000000e+00
0.000000000000000000e+00
0.000000000000000000e+00
0.000000000000000000e+00
0.000000000000000000e+00
0.000000000000000000e+00
0.000000000000000000e+00
0.000000000000000000e+00
0.000000000000000000e+00
0.000000000000000000e+00
0.000000000000000000e+00
0.000000000000000000e+00
0.000000000000000000e+00
0.000000000000000000e+00
0.000000000000000000e+00
0.000000000000000000e+00
0.000000000000000000e+00
0.000000000000000000e+00
0.000000000000000000e+00
0.000000000000000000e+00
0.000000000000000000e+00
0.000000000000000000e+00
0.000000000000000000e+00
0.000000000000000000e+00
0.000000000000000000e+00
0.000000000000000000e+00
0.000000000000000000e+00
0.000000000000000000e+00
0.000000000000000000e+00
0.000000000000000000e+00
0.000000000000000000e+00
0.000000000000000000e+00
0.000000000000000000e+00
0.000000000000000000e+00
0.000000000000000000e+00
0.000000000000000000e+00
0.000000000000000000e+00
0.000000000000000000e+00
0.000000000000000000e+00
0.000000000000000000e+00
0.000000000000000000e+00
0.000000000000000000e+00
0.000000000000000000e+00
0.000000000000000000e+00
0.000000000000000000e+00
0.000000000000000000e+00
0.000000000000000000e+00
0.000000000000000000e+00
0.000000000000000000e+00
0.000000000000000000e+00
0.000000000000000000e+00
0.000000000000000000e+00
0.000000000000000000e+00
0.000000000000000000e+00
0.000000000000000000e+00
0.000000000000000000e+00
0.000000000000000000e+00
0.000000000000000000e+00
0.000000000000000000e+00
0.000000000000000000e+00
0.000000000000000000e+00
0.000000000000000000e+00
0.000000000000000000e+00
0.000000000000000000e+00
0.000000000000000000e+00
0.000000000000000000e+00
0.000000000000000000e+00
0.000000000000000000e+00
0.000000000000000000e+00
0.000000000000000000e+00
0.000000000000000000e+00
0.000000000000000000e+00
0.000000000000000000e+00
0.000000000000000000e+00
0.000000000000000000e+00
0.000000000000000000e+00
0.000000000000000000e+00
0.000000000000000000e+00
0.000000000000000000e+00
0.000000000000000000e+00
0.000000000000000000e+00
0.000000000000000000e+00
0.000000000000000000e+00
0.000000000000000000e+00
0.000000000000000000e+00
0.000000000000000000e+00
0.000000000000000000e+00
0.000000000000000000e+00
0.000000000000000000e+00
0.000000000000000000e+00
0.000000000000000000e+00
0.000000000000000000e+00
0.000000000000000000e+00
0.000000000000000000e+00
0.000000000000000000e+00
0.000000000000000000e+00
0.000000000000000000e+00
0.000000000000000000e+00
0.000000000000000000e+00
0.000000000000000000e+00
0.000000000000000000e+00
0.000000000000000000e+00
0.000000000000000000e+00
0.000000000000000000e+00
0.000000000000000000e+00
0.000000000000000000e+00
0.000000000000000000e+00
0.000000000000000000e+00
0.000000000000000000e+00
0.000000000000000000e+00
0.000000000000000000e+00
0.000000000000000000e+00
0.000000000000000000e+00
0.000000000000000000e+00
0.000000000000000000e+00
0.000000000000000000e+00
0.000000000000000000e+00
0.000000000000000000e+00
0.000000000000000000e+00
0.000000000000000000e+00
0.000000000000000000e+00
0.000000000000000000e+00
0.000000000000000000e+00
0.000000000000000000e+00
0.000000000000000000e+00
0.000000000000000000e+00
0.000000000000000000e+00
0.000000000000000000e+00
0.000000000000000000e+00
0.000000000000000000e+00
0.000000000000000000e+00
0.000000000000000000e+00
0.000000000000000000e+00
0.000000000000000000e+00
0.000000000000000000e+00
0.000000000000000000e+00
0.000000000000000000e+00
0.000000000000000000e+00
0.000000000000000000e+00
0.000000000000000000e+00
0.000000000000000000e+00
0.000000000000000000e+00
0.000000000000000000e+00
0.000000000000000000e+00
0.000000000000000000e+00
0.000000000000000000e+00
0.000000000000000000e+00
0.000000000000000000e+00
0.000000000000000000e+00
0.000000000000000000e+00
0.000000000000000000e+00
0.000000000000000000e+00
0.000000000000000000e+00
0.000000000000000000e+00
0.000000000000000000e+00
0.000000000000000000e+00
0.000000000000000000e+00
0.000000000000000000e+00
0.000000000000000000e+00
0.000000000000000000e+00
0.000000000000000000e+00
0.000000000000000000e+00
0.000000000000000000e+00
0.000000000000000000e+00
0.000000000000000000e+00
0.000000000000000000e+00
0.000000000000000000e+00
0.000000000000000000e+00
0.000000000000000000e+00
0.000000000000000000e+00
0.000000000000000000e+00
0.000000000000000000e+00
0.000000000000000000e+00
0.000000000000000000e+00
0.000000000000000000e+00
0.000000000000000000e+00
0.000000000000000000e+00
0.000000000000000000e+00
0.000000000000000000e+00
0.000000000000000000e+00
0.000000000000000000e+00
0.000000000000000000e+00
0.000000000000000000e+00
0.000000000000000000e+00
0.000000000000000000e+00
0.000000000000000000e+00
0.000000000000000000e+00
0.000000000000000000e+00
0.000000000000000000e+00
0.000000000000000000e+00
0.000000000000000000e+00
0.000000000000000000e+00
0.000000000000000000e+00
0.000000000000000000e+00
0.000000000000000000e+00
0.000000000000000000e+00
0.000000000000000000e+00
0.000000000000000000e+00
0.000000000000000000e+00
0.000000000000000000e+00
0.000000000000000000e+00
0.000000000000000000e+00
0.000000000000000000e+00
0.000000000000000000e+00
0.000000000000000000e+00
0.000000000000000000e+00
0.000000000000000000e+00
0.000000000000000000e+00
0.000000000000000000e+00
0.000000000000000000e+00
0.000000000000000000e+00
0.000000000000000000e+00
0.000000000000000000e+00
0.000000000000000000e+00
0.000000000000000000e+00
0.000000000000000000e+00
0.000000000000000000e+00
0.000000000000000000e+00
0.000000000000000000e+00
0.000000000000000000e+00
0.000000000000000000e+00
0.000000000000000000e+00
0.000000000000000000e+00
0.000000000000000000e+00
0.000000000000000000e+00
0.000000000000000000e+00
0.000000000000000000e+00
0.000000000000000000e+00
0.000000000000000000e+00
-1.192092895507812500e-07
1.192092895507812500e-07
-1.192092895507812500e-07
2.384185791015625000e-07
-2.384185791015625000e-07
3.576278686523437500e-07
-4.768371582031250000e-07
4.768371582031250000e-07
-7.152557373046875000e-07
8.344650268554687500e-07
-9.536743164062500000e-07
1.311302185058593750e-06
-1.668930053710937500e-06
2.264976501464843750e-06
-3.933906555175781250e-06
1.454353332519531250e-05
7.045269012451171875e-05
9.012222290039062500e-05
1.106262207031250000e-04
1.313686370849609375e-04
1.493692398071289062e-04
1.589059829711914062e-04
1.748800277709960938e-04
1.977682113647460938e-04
2.157688140869140625e-04
2.374649047851562500e-04
2.555847167968750000e-04
2.729892730712890625e-04
2.911090850830078125e-04
3.103017807006835938e-04
3.360509872436523438e-04
3.503561019897460938e-04
3.640651702880859375e-04
3.823041915893554688e-04
4.030466079711914062e-04
4.179477691650390625e-04
4.296302795410156250e-04
4.404783248901367188e-04
4.663467407226562500e-04
4.794597625732421875e-04
5.028247833251953125e-04
5.086660385131835938e-04
5.290508270263671875e-04
5.512237548828125000e-04
5.584955215454101562e-04
5.762577056884765625e-04
5.973577499389648438e-04
6.400346755981445312e-04
6.350278854370117188e-04
6.146430969238281250e-04
6.303787231445312500e-04
6.332397460937500000e-04
6.649494171142578125e-04
6.991624832153320312e-04
6.899833679199218750e-04
7.274150848388671875e-04
7.226467132568359375e-04
7.401704788208007812e-04
7.543563842773437500e-04
7.661581039428710938e-04
8.089542388916015625e-04
8.095502853393554688e-04
8.195638656616210938e-04
8.401870727539062500e-04
8.493661880493164062e-04
8.565187454223632812e-04
8.761882781982421875e-04
8.833408355712890625e-04
9.100437164306640625e-04
9.059906005859375000e-04
9.328126907348632812e-04
9.856224060058593750e-04
1.028656959533691406e-03
1.045107841491699219e-03
1.005649566650390625e-03
1.020550727844238281e-03
9.871721267700195312e-04
9.393692016601562500e-04
9.775161743164062500e-04
9.764432907104492188e-04
1.011371612548828125e-03
1.033544540405273438e-03
1.020193099975585938e-03
1.055359840393066406e-03
1.042008399963378906e-03
1.062154769897460938e-03
1.056790351867675781e-03
1.124978065490722656e-03
1.117706298828125000e-03
1.141786575317382812e-03
1.157879829406738281e-03
1.053452491760253906e-03
1.070618629455566406e-03
1.074314117431640625e-03
1.063227653503417969e-03
1.071929931640625000e-03
1.108765602111816406e-03
1.087665557861328125e-03
1.087307929992675781e-03
1.100659370422363281e-03
1.096129417419433594e-03
1.135468482971191406e-03
1.123547554016113281e-03
1.135110855102539062e-03
1.098275184631347656e-03
9.945631027221679688e-04
1.017808914184570312e-03
1.040697097778320312e-03
1.007080078125000000e-03
9.713172912597656250e-04
9.819269180297851562e-04
9.424686431884765625e-04
9.437799453735351562e-04
9.472370147705078125e-04
8.884668350219726562e-04
9.522438049316406250e-04
9.166002273559570312e-04
9.543895721435546875e-04
8.019208908081054688e-04
6.761550903320312500e-04
7.059574127197265625e-04
6.784200668334960938e-04
6.777048110961914062e-04
6.694793701171875000e-04
7.392168045043945312e-04
6.806850433349609375e-04
6.736516952514648438e-04
6.690025329589843750e-04
7.077455520629882812e-04
6.531476974487304688e-04
6.496906280517578125e-04
6.543397903442382812e-04
5.236864089965820312e-04
3.859996795654296875e-04
3.955364227294921875e-04
4.428625106811523438e-04
4.442930221557617188e-04
4.142522811889648438e-04
4.198551177978515625e-04
4.385709762573242188e-04
4.026889801025390625e-04
4.183053970336914062e-04
3.699064254760742188e-04
4.175901412963867188e-04
3.948211669921875000e-04
4.349946975708007812e-04
2.812147140502929688e-04
1.862049102783203125e-04
2.406835556030273438e-04
1.986026763916015625e-04
1.658201217651367188e-04
1.561641693115234375e-04
1.507997512817382812e-04
1.336336135864257812e-04
1.201629638671875000e-04
1.441240310668945312e-04
1.367330551147460938e-04
1.491308212280273438e-04
1.974105834960937500e-04
2.155303955078125000e-04
1.347064971923828125e-05
-1.789331436157226562e-04
-1.244544982910156250e-04
-1.156330108642578125e-04
-1.020431518554687500e-04
-1.105070114135742188e-04
-1.251697540283203125e-05
2.968311309814453125e-05
-5.280971527099609375e-05
-2.861022949218750000e-05
-6.997585296630859375e-05
-1.109838485717773438e-04
-1.571178436279296875e-04
-1.662969589233398438e-04
-2.574920654296875000e-04
-3.306865692138671875e-04
-3.021955490112304688e-04
-3.314018249511718750e-04
-3.159046173095703125e-04
-3.678798675537109375e-04
-3.516674041748046875e-04
-3.927946090698242188e-04
-3.525018692016601562e-04
-3.756284713745117188e-04
-3.892183303833007812e-04
-3.467798233032226562e-04
-3.194808959960937500e-04
-2.585649490356445312e-04
-4.816055297851562500e-04
-5.596876144409179688e-04
-5.406141281127929688e-04
-5.708932876586914062e-04
-6.176233291625976562e-04
-5.668401718139648438e-04
-5.511045455932617188e-04
-5.699396133422851562e-04
-5.955696105957031250e-04
-5.431175231933593750e-04
-5.141496658325195312e-04
-6.347894668579101562e-04
-5.974769592285156250e-04
-4.867315292358398438e-04
-6.315708160400390625e-04
-8.474588394165039062e-04
-8.623600006103515625e-04
-8.349418640136718750e-04
-7.058382034301757812e-04
-7.098913192749023438e-04
-6.617307662963867188e-04
-6.111860275268554688e-04
-6.681680679321289062e-04
-7.131099700927734375e-04
-7.293224334716796875e-04
-7.270574569702148438e-04
-8.068084716796875000e-04
-8.469820022583007812e-04
-9.719133377075195312e-04
-1.029372215270996094e-03
-8.257627487182617188e-04
-8.594989776611328125e-04
-8.699893951416015625e-04
-9.642839431762695312e-04
-1.042723655700683594e-03
-1.140236854553222656e-03
-1.112580299377441406e-03
-9.995698928833007812e-04
-1.035213470458984375e-03
-1.003742218017578125e-03
-8.987188339233398438e-04
-8.608102798461914062e-04
-1.387953758239746094e-03
-1.478910446166992188e-03
-1.350045204162597656e-03
-1.358747482299804688e-03
-1.384258270263671875e-03
-1.420855522155761719e-03
-1.300930976867675781e-03
-1.430392265319824219e-03
-1.507997512817382812e-03
-1.502990722656250000e-03
-1.300454139709472656e-03
-1.250505447387695312e-03
-1.458168029785156250e-03
-1.475930213928222656e-03
-1.597285270690917969e-03
-1.602888107299804688e-03
-1.739621162414550781e-03
-1.686334609985351562e-03
-1.637697219848632812e-03
-1.655459403991699219e-03
-1.586318016052246094e-03
-1.532077789306640625e-03
-1.555919647216796875e-03
-1.729726791381835938e-03
-1.608133316040039062e-03
-1.632809638977050781e-03
-1.602292060852050781e-03
-1.592278480529785156e-03
-1.652598381042480469e-03
-1.685023307800292969e-03
-1.725316047668457031e-03
-1.806497573852539062e-03
-1.873612403869628906e-03
-1.828789710998535156e-03
-1.987218856811523438e-03
-2.038836479187011719e-03
-1.773476600646972656e-03
-1.529812812805175781e-03
-1.676321029663085938e-03
-1.872777938842773438e-03
-1.866936683654785156e-03
-1.778721809387207031e-03
-1.981377601623535156e-03
-2.020120620727539062e-03
-2.101302146911621094e-03
-2.143740653991699219e-03
-2.020359039306640625e-03
-1.859188079833984375e-03
-1.847624778747558594e-03
-1.872897148132324219e-03
-2.005338668823242188e-03
-2.028107643127441406e-03
-1.815795898437500000e-03
-1.773118972778320312e-03
-2.026081085205078125e-03
-2.289175987243652344e-03
-2.472400665283203125e-03
-2.223134040832519531e-03
-2.074956893920898438e-03
-1.852393150329589844e-03
-2.274513244628906250e-03
-2.381324768066406250e-03
-2.256155014038085938e-03
-1.731038093566894531e-03
-2.359032630920410156e-03
-3.216266632080078125e-03
-3.301024436950683594e-03
-2.761125564575195312e-03
-1.701354980468750000e-03
-1.887559890747070312e-03
-2.218127250671386719e-03
-2.402186393737792969e-03
-2.213001251220703125e-03
-2.256035804748535156e-03
-2.225399017333984375e-03
-2.333164215087890625e-03
-2.410650253295898438e-03
-2.367019653320312500e-03
-2.171516418457031250e-03
-1.947045326232910156e-03
-2.047419548034667969e-03
-2.174019813537597656e-03
-2.175450325012207031e-03
-2.040266990661621094e-03
-2.168297767639160156e-03
-2.240419387817382812e-03
-2.368807792663574219e-03
-2.405166625976562500e-03
-2.221822738647460938e-03
-2.112865447998046875e-03
-2.055168151855468750e-03
-2.258062362670898438e-03
-2.215147018432617188e-03
-2.134799957275390625e-03
-1.936554908752441406e-03
-1.960992813110351562e-03
-2.188920974731445312e-03
-2.176046371459960938e-03
-2.417922019958496094e-03
-2.334237098693847656e-03
-2.361774444580078125e-03
-2.221822738647460938e-03
-2.121806144714355469e-03
-2.259492874145507812e-03
-2.321481704711914062e-03
-2.319335937500000000e-03
-2.272248268127441406e-03
-2.417325973510742188e-03
-2.352476119995117188e-03
-2.342820167541503906e-03
-2.305030822753906250e-03
-2.468109130859375000e-03
-2.811312675476074219e-03
-2.955913543701171875e-03
-2.838134765625000000e-03
-2.936124801635742188e-03
-2.907037734985351562e-03
-2.896666526794433594e-03
-2.980113029479980469e-03
-2.928853034973144531e-03
-2.955079078674316406e-03
-2.888321876525878906e-03
-3.087401390075683594e-03
-3.247976303100585938e-03
-3.126025199890136719e-03
-3.158450126647949219e-03
-3.242850303649902344e-03
-3.437161445617675781e-03
-3.398537635803222656e-03
-3.476738929748535156e-03
-3.383874893188476562e-03
-3.561019897460937500e-03
-3.626465797424316406e-03
-3.646612167358398438e-03
-3.736615180969238281e-03
-3.843307495117187500e-03
-3.905892372131347656e-03
-3.923177719116210938e-03
-3.916740417480468750e-03
-4.050254821777343750e-03
-4.340648651123046875e-03
-4.305243492126464844e-03
-4.442691802978515625e-03
-4.619002342224121094e-03
-4.823088645935058594e-03
-5.000114440917968750e-03
-5.025982856750488281e-03
-4.994511604309082031e-03
-5.241751670837402344e-03
-5.318045616149902344e-03
-5.210399627685546875e-03
-5.378246307373046875e-03
-5.359411239624023438e-03
-5.638718605041503906e-03
-6.014585494995117188e-03
-6.077408790588378906e-03
-6.185054779052734375e-03
-6.263732910156250000e-03
-6.368994712829589844e-03
-6.418228149414062500e-03
-6.476163864135742188e-03
-6.544232368469238281e-03
-6.609439849853515625e-03
-6.657958030700683594e-03
-6.727933883666992188e-03
-6.957411766052246094e-03
-6.896138191223144531e-03
-7.032036781311035156e-03
-7.297754287719726562e-03
-7.322669029235839844e-03
-7.477045059204101562e-03
-7.378220558166503906e-03
-7.287859916687011719e-03
-7.430076599121093750e-03
-7.596492767333984375e-03
-7.585883140563964844e-03
-7.627487182617187500e-03
-7.547736167907714844e-03
-7.613539695739746094e-03
-7.718920707702636719e-03
-7.689118385314941406e-03
-7.755160331726074219e-03
-8.034348487854003906e-03
-7.953882217407226562e-03
-8.118391036987304688e-03
-8.165001869201660156e-03
-8.162021636962890625e-03
-8.216857910156250000e-03
-8.174896240234375000e-03
-8.244991302490234375e-03
-8.346438407897949219e-03
-8.396983146667480469e-03
-8.435726165771484375e-03
-8.553147315979003906e-03
-8.429765701293945312e-03
-8.656978607177734375e-03
-8.916020393371582031e-03
-8.956313133239746094e-03
-9.042739868164062500e-03
-9.062051773071289062e-03
-9.162902832031250000e-03
-9.277701377868652344e-03
-9.355902671813964844e-03
-9.343385696411132812e-03
-9.377598762512207031e-03
-9.406566619873046875e-03
-9.400486946105957031e-03
-9.633660316467285156e-03
-9.572029113769531250e-03
-9.680747985839843750e-03
-9.798407554626464844e-03
-9.731769561767578125e-03
-9.788393974304199219e-03
-9.701609611511230469e-03
-9.537220001220703125e-03
-9.482264518737792969e-03
-9.397625923156738281e-03
-9.329676628112792969e-03
-9.347081184387207031e-03
-9.215235710144042969e-03
-9.067893028259277344e-03
-9.065270423889160156e-03
-8.862137794494628906e-03
-8.992433547973632812e-03
-9.128570556640625000e-03
-8.820533752441406250e-03
-8.751988410949707031e-03
-8.707642555236816406e-03
-8.636474609375000000e-03
-8.629441261291503906e-03
-8.592963218688964844e-03
-8.409857749938964844e-03
-8.415102958679199219e-03
-8.398771286010742188e-03
-8.340597152709960938e-03
-8.218169212341308594e-03
-8.012056350708007812e-03
-8.136987686157226562e-03
-8.289813995361328125e-03
-8.142590522766113281e-03
-8.248925209045410156e-03
-8.137822151184082031e-03
-8.006691932678222656e-03
-7.990002632141113281e-03
-7.910728454589843750e-03
-7.858991622924804688e-03
-7.903695106506347656e-03
-7.789611816406250000e-03
-7.702469825744628906e-03
-7.783889770507812500e-03
-7.632493972778320312e-03
-7.804274559020996094e-03
-7.823228836059570312e-03
-7.693767547607421875e-03
-7.711172103881835938e-03
-7.689952850341796875e-03
-7.594823837280273438e-03
-7.562160491943359375e-03
-7.430911064147949219e-03
-7.409572601318359375e-03
-7.307767868041992188e-03
-7.148265838623046875e-03
-7.073163986206054688e-03
-6.987571716308593750e-03
-6.910681724548339844e-03
-6.964921951293945312e-03
-6.969451904296875000e-03
-6.789326667785644531e-03
-6.689310073852539062e-03
-6.611704826354980469e-03
-6.471514701843261719e-03
-6.423830986022949219e-03
-6.294488906860351562e-03
-6.148457527160644531e-03
-6.051898002624511719e-03
-5.856275558471679688e-03
-5.735754966735839844e-03
-5.602359771728515625e-03
-5.504012107849121094e-03
-5.368351936340332031e-03
-5.256533622741699219e-03
-5.122900009155273438e-03
-4.981160163879394531e-03
-4.836559295654296875e-03
-4.677295684814453125e-03
-4.550218582153320312e-03
-4.424929618835449219e-03
-4.338383674621582031e-03
-4.257917404174804688e-03
-4.141569137573242188e-03
-4.025936126708984375e-03
-3.910422325134277344e-03
-3.796339035034179688e-03
-3.697276115417480469e-03
-3.623127937316894531e-03
-3.582119941711425781e-03
-3.542065620422363281e-03
-3.494739532470703125e-03
-3.509044647216796875e-03
-3.489971160888671875e-03
-3.440499305725097656e-03
-3.394246101379394531e-03
-3.445267677307128906e-03
-3.412723541259765625e-03
-3.398060798645019531e-03
-3.362536430358886719e-03
-3.371715545654296875e-03
-3.352522850036621094e-03
-3.343343734741210938e-03
-3.344297409057617188e-03
-3.295063972473144531e-03
-3.315567970275878906e-03
-3.239750862121582031e-03
-3.275156021118164062e-03
-3.300666809082031250e-03
-3.263831138610839844e-03
-3.278613090515136719e-03
-3.183603286743164062e-03
-3.232121467590332031e-03
-3.209590911865234375e-03
-3.204822540283203125e-03
-3.235578536987304688e-03
-3.189682960510253906e-03
-3.205657005310058594e-03
-3.167867660522460938e-03
-3.137826919555664062e-03
-3.129124641418457031e-03
-3.191232681274414062e-03
-3.168106079101562500e-03
-3.145337104797363281e-03
-3.146767616271972656e-03
-3.047466278076171875e-03
-3.100752830505371094e-03
-3.136157989501953125e-03
-3.058433532714843750e-03
-3.094673156738281250e-03
-3.060579299926757812e-03
-3.039240837097167969e-03
-3.025293350219726562e-03
-3.035068511962890625e-03
-3.039956092834472656e-03
-2.992868423461914062e-03
-2.997279167175292969e-03
-3.007650375366210938e-03
-2.979636192321777344e-03
-2.967476844787597656e-03
-2.964377403259277344e-03
-2.948403358459472656e-03
-2.920389175415039062e-03
-2.929329872131347656e-03
-2.945423126220703125e-03
-2.918958663940429688e-03
-2.921342849731445312e-03
-2.965092658996582031e-03
-2.920031547546386719e-03
-2.897381782531738281e-03
-2.914786338806152344e-03
-2.910137176513671875e-03
-2.865076065063476562e-03
-2.825260162353515625e-03
-2.829074859619140625e-03
-2.849698066711425781e-03
-2.810239791870117188e-03
-2.793192863464355469e-03
-2.754688262939453125e-03
-2.764344215393066406e-03
-2.744555473327636719e-03
-2.739906311035156250e-03
-2.748966217041015625e-03
-2.732038497924804688e-03
-2.773046493530273438e-03
-2.675056457519531250e-03
-2.664923667907714844e-03
-2.699971199035644531e-03
-2.681016921997070312e-03
-2.693772315979003906e-03
-2.662301063537597656e-03
-2.643227577209472656e-03
-2.643346786499023438e-03
-2.626180648803710938e-03
-2.618908882141113281e-03
-2.573370933532714844e-03
-2.598643302917480469e-03
-2.631187438964843750e-03
-2.624511718750000000e-03
-2.587795257568359375e-03
-2.545356750488281250e-03
-2.582073211669921875e-03
-2.579450607299804688e-03
-2.558708190917968750e-03
-2.521753311157226562e-03
-2.505898475646972656e-03
-2.504467964172363281e-03
-2.520203590393066406e-03
-2.488255500793457031e-03
-2.496600151062011719e-03
-2.418994903564453125e-03
-2.409696578979492188e-03
-2.426147460937500000e-03
-2.465486526489257812e-03
-2.477765083312988281e-03
-2.448320388793945312e-03
-2.429008483886718750e-03
-2.394080162048339844e-03
-2.416372299194335938e-03
-2.379059791564941406e-03
-2.380251884460449219e-03
-2.407789230346679688e-03
-2.361059188842773438e-03
-2.357721328735351562e-03
-2.355933189392089844e-03
-2.358555793762207031e-03
-2.334952354431152344e-03
-2.317309379577636719e-03
-2.329230308532714844e-03
-2.282023429870605469e-03
-2.301454544067382812e-03
-2.276778221130371094e-03
-2.261281013488769531e-03
-2.281665802001953125e-03
-2.269744873046875000e-03
-2.267599105834960938e-03
-2.252936363220214844e-03
-2.193927764892578125e-03
-2.212405204772949219e-03
-2.225637435913085938e-03
-2.203822135925292969e-03
-2.202391624450683594e-03
-2.166748046875000000e-03
-2.216458320617675781e-03
-2.188563346862792969e-03
-2.157330513000488281e-03
-2.139449119567871094e-03
-2.161622047424316406e-03
-2.183556556701660156e-03
-2.114295959472656250e-03
-2.102732658386230469e-03
-2.120494842529296875e-03
-2.097606658935546875e-03
-2.059578895568847656e-03
-2.086162567138671875e-03
-2.106428146362304688e-03
-2.144098281860351562e-03
-2.123951911926269531e-03
-2.081036567687988281e-03
-2.079010009765625000e-03
-2.087831497192382812e-03
-2.058267593383789062e-03
-2.010822296142578125e-03
-2.014160156250000000e-03
-2.040266990661621094e-03
-2.021074295043945312e-03
-2.032995223999023438e-03
-2.015113830566406250e-03
-1.974225044250488281e-03
-1.984596252441406250e-03
-1.958847045898437500e-03
-1.979708671569824219e-03
-1.932501792907714844e-03
-1.943469047546386719e-03
-1.946210861206054688e-03
-1.900076866149902344e-03
-1.934766769409179688e-03
-1.961350440979003906e-03
-1.947045326232910156e-03
-1.910090446472167969e-03
-1.881599426269531250e-03
-1.931071281433105469e-03
-1.922607421875000000e-03
-1.893043518066406250e-03
-1.887917518615722656e-03
-1.852989196777343750e-03
-1.857399940490722656e-03
-1.811742782592773438e-03
-1.828670501708984375e-03
-1.887083053588867188e-03
-1.848816871643066406e-03
-1.779079437255859375e-03
-1.788496971130371094e-03
-1.774668693542480469e-03
-1.799941062927246094e-03
-1.782774925231933594e-03
-1.792788505554199219e-03
-1.731991767883300781e-03
-1.732945442199707031e-03
-1.751661300659179688e-03
-1.739263534545898438e-03
-1.731634140014648438e-03
-1.748919486999511719e-03
-1.695156097412109375e-03
-1.726508140563964844e-03
-1.708626747131347656e-03
-1.676082611083984375e-03
-1.699686050415039062e-03
-1.666426658630371094e-03
-1.671671867370605469e-03
-1.681327819824218750e-03
-1.663923263549804688e-03
-1.603484153747558594e-03
-1.627564430236816406e-03
-1.617670059204101562e-03
-1.605033874511718750e-03
-1.639604568481445312e-03
-1.631379127502441406e-03
-1.604318618774414062e-03
-1.610279083251953125e-03
-1.567840576171875000e-03
-1.585125923156738281e-03
-1.566290855407714844e-03
-1.538038253784179688e-03
-1.585602760314941406e-03
-1.587867736816406250e-03
-1.555681228637695312e-03
-1.514673233032226562e-03
-1.512885093688964844e-03
-1.527070999145507812e-03
-1.515388488769531250e-03
-1.489162445068359375e-03
-1.538753509521484375e-03
-1.552581787109375000e-03
-1.533627510070800781e-03
-1.498937606811523438e-03
-1.471042633056640625e-03
-1.441955566406250000e-03
-1.470565795898437500e-03
-1.429677009582519531e-03
-1.423597335815429688e-03
-1.442313194274902344e-03
-1.456499099731445312e-03
-1.448392868041992188e-03
-1.420855522155761719e-03
-1.460194587707519531e-03
-1.452088356018066406e-03
-1.447081565856933594e-03
-1.450538635253906250e-03
-1.407861709594726562e-03
-1.371622085571289062e-03
-1.385450363159179688e-03
-1.377582550048828125e-03
-1.361489295959472656e-03
-1.365184783935546875e-03
-1.375913619995117188e-03
-1.351237297058105469e-03
-1.355648040771484375e-03
-1.309871673583984375e-03
-1.315355300903320312e-03
-1.326799392700195312e-03
-1.321911811828613281e-03
-1.312971115112304688e-03
-1.298427581787109375e-03
-1.286387443542480469e-03
-1.270413398742675781e-03
-1.261353492736816406e-03
-1.318812370300292969e-03
-1.247763633728027344e-03
-1.222729682922363281e-03
-1.257300376892089844e-03
-1.267671585083007812e-03
-1.268029212951660156e-03
-1.255631446838378906e-03
-1.219034194946289062e-03
-1.190662384033203125e-03
-1.157760620117187500e-03
-1.209855079650878906e-03
-1.200437545776367188e-03
-1.235842704772949219e-03
-1.248359680175781250e-03
-1.111865043640136719e-03
-1.121163368225097656e-03
-1.195073127746582031e-03
-1.165151596069335938e-03
-1.152634620666503906e-03
-1.134276390075683594e-03
-1.104354858398437500e-03
-1.144647598266601562e-03
-1.109004020690917969e-03
-1.136660575866699219e-03
-1.141667366027832031e-03
-1.116275787353515625e-03
-1.113295555114746094e-03
-1.071095466613769531e-03
-1.126766204833984375e-03
-1.032590866088867188e-03
-1.049518585205078125e-03
-1.042485237121582031e-03
-1.062631607055664062e-03
-1.100778579711914062e-03
-1.017093658447265625e-03
-1.047372817993164062e-03
-1.054525375366210938e-03
-1.040577888488769531e-03
-9.819269180297851562e-04
-1.032114028930664062e-03
-1.036524772644042969e-03
-1.023173332214355469e-03
-1.006364822387695312e-03
-1.038312911987304688e-03
-1.018643379211425781e-03
-1.008272171020507812e-03
-1.002311706542968750e-03
-9.672641754150390625e-04
-9.711980819702148438e-04
-9.630918502807617188e-04
-9.900331497192382812e-04
-9.927749633789062500e-04
-9.475946426391601562e-04
-9.734630584716796875e-04
-9.353160858154296875e-04
-8.828639984130859375e-04
-9.441375732421875000e-04
-9.621381759643554688e-04
-9.698867797851562500e-04
-9.310245513916015625e-04
-9.298324584960937500e-04
-9.007453918457031250e-04
-9.288787841796875000e-04
-9.070634841918945312e-04
-9.151697158813476562e-04
-9.064674377441406250e-04
-8.814334869384765625e-04
-8.840560913085937500e-04
-8.634328842163085938e-04
-8.915662765502929688e-04
-8.534193038940429688e-04
-8.728504180908203125e-04
-8.933544158935546875e-04
-8.850097656250000000e-04
-8.950233459472656250e-04
-8.182525634765625000e-04
-8.094310760498046875e-04
-8.454322814941406250e-04
-8.219480514526367188e-04
-8.287429809570312500e-04
-8.131265640258789062e-04
-8.202791213989257812e-04
-7.945299148559570312e-04
-7.442235946655273438e-04
-7.481575012207031250e-04
-7.750988006591796875e-04
-7.622241973876953125e-04
-7.723569869995117188e-04
-7.621049880981445312e-04
-7.634162902832031250e-04
-7.385015487670898438e-04
-7.572174072265625000e-04
-7.712841033935546875e-04
-7.385015487670898438e-04
-7.351636886596679688e-04
-7.270574569702148438e-04
-7.375478744506835938e-04
-7.002353668212890625e-04
-6.961822509765625000e-04
-6.846189498901367188e-04
-7.158517837524414062e-04
-7.196664810180664062e-04
-6.586313247680664062e-04
-7.437467575073242188e-04
-7.659196853637695312e-04
-6.511211395263671875e-04
-6.724596023559570312e-04
-6.470680236816406250e-04
-5.946159362792968750e-04
-6.035566329956054688e-04
-6.483793258666992188e-04
-6.395578384399414062e-04
-6.209611892700195312e-04
-5.970001220703125000e-04
-6.005764007568359375e-04
-6.076097488403320312e-04
-6.202459335327148438e-04
-5.875825881958007812e-04
-6.028413772583007812e-04
-5.797147750854492188e-04
-5.608797073364257812e-04
-6.108283996582031250e-04
-5.093812942504882812e-04
-5.359649658203125000e-04
-5.369186401367187500e-04
-5.342960357666015625e-04
-5.124807357788085938e-04
-5.310773849487304688e-04
-5.410909652709960938e-04
-5.214214324951171875e-04
-4.805326461791992188e-04
-4.891157150268554688e-04
-4.864931106567382812e-04
-4.742145538330078125e-04
-5.221366882324218750e-04
-4.847049713134765625e-04
-5.046129226684570312e-04
-5.278587341308593750e-04
-4.739761352539062500e-04
-4.590749740600585938e-04
-4.720687866210937500e-04
-4.489421844482421875e-04
-4.442930221557617188e-04
-4.523992538452148438e-04
-4.529953002929687500e-04
-4.745721817016601562e-04
-4.436969757080078125e-04
-5.061626434326171875e-04
-5.108118057250976562e-04
-4.588365554809570312e-04
-4.603862762451171875e-04
-4.398822784423828125e-04
-4.520416259765625000e-04
-4.761219024658203125e-04
-4.454851150512695312e-04
-4.462003707885742188e-04
-4.365444183349609375e-04
-3.983974456787109375e-04
-3.998279571533203125e-04
-3.972053527832031250e-04
-4.662275314331054688e-04
-4.338026046752929688e-04
-4.162788391113281250e-04
-4.291534423828125000e-04
-1.754760742187500000e-04
-1.355409622192382812e-04
-1.251697540283203125e-04
-1.618862152099609375e-04
-1.524686813354492188e-04
-1.190900802612304688e-04
-1.689195632934570312e-04
-1.494884490966796875e-04
-9.500980377197265625e-05
-9.703636169433593750e-05
-1.183748245239257812e-04
-7.796287536621093750e-05
-1.475811004638671875e-04
-6.711483001708984375e-05
1.540184020996093750e-04
1.095533370971679688e-04
1.527070999145507812e-04
1.674890518188476562e-04
1.549720764160156250e-04
1.744031906127929688e-04
1.420974731445312500e-04
1.863241195678710938e-04
1.357793807983398438e-04
1.201629638671875000e-04
1.515150070190429688e-04
1.478195190429687500e-04
1.478195190429687500e-04
2.335309982299804688e-04
4.048347473144531250e-04
3.782510757446289062e-04
4.425048828125000000e-04
4.481077194213867188e-04
4.105567932128906250e-04
4.111528396606445312e-04
4.097223281860351562e-04
4.310607910156250000e-04
4.373788833618164062e-04
4.655122756958007812e-04
4.535913467407226562e-04
4.194974899291992188e-04
4.204511642456054688e-04
5.185604095458984375e-04
6.794929504394531250e-04
6.712675094604492188e-04
6.145238876342773438e-04
6.791353225708007812e-04
7.566213607788085938e-04
6.942749023437500000e-04
7.086992263793945312e-04
6.910562515258789062e-04
6.960630416870117188e-04
7.299184799194335938e-04
6.331205368041992188e-04
7.451772689819335938e-04
6.978511810302734375e-04
8.103847503662109375e-04
9.797811508178710938e-04
9.711980819702148438e-04
9.951591491699218750e-04
9.425878524780273438e-04
9.652376174926757812e-04
9.660720825195312500e-04
9.381771087646484375e-04
9.373426437377929688e-04
9.784698486328125000e-04
9.781122207641601562e-04
9.543895721435546875e-04
1.011729240417480469e-03
9.465217590332031250e-04
1.063108444213867188e-03
1.230955123901367188e-03
1.201987266540527344e-03
1.230955123901367188e-03
1.197576522827148438e-03
1.213431358337402344e-03
1.166820526123046875e-03
1.215100288391113281e-03
1.245856285095214844e-03
1.200914382934570312e-03
1.213192939758300781e-03
1.207232475280761719e-03
1.243352890014648438e-03
1.175880432128906250e-03
1.235365867614746094e-03
1.327872276306152344e-03
1.354455947875976562e-03
1.333594322204589844e-03
1.322627067565917969e-03
1.319169998168945312e-03
1.283884048461914062e-03
1.331090927124023438e-03
1.362323760986328125e-03
1.315712928771972656e-03
1.235842704772949219e-03
1.254081726074218750e-03
1.286983489990234375e-03
1.272201538085937500e-03
1.445174217224121094e-03
1.538395881652832031e-03
1.519560813903808594e-03
1.562833786010742188e-03
1.500487327575683594e-03
1.545310020446777344e-03
1.548528671264648438e-03
1.520872116088867188e-03
1.514315605163574219e-03
1.523375511169433594e-03
1.540184020996093750e-03
1.526236534118652344e-03
1.577854156494140625e-03
1.517891883850097656e-03
1.611948013305664062e-03
1.839518547058105469e-03
1.758933067321777344e-03
1.755237579345703125e-03
1.759290695190429688e-03
1.781940460205078125e-03
1.799345016479492188e-03
1.738905906677246094e-03
1.731753349304199219e-03
1.809597015380859375e-03
1.779556274414062500e-03
1.847028732299804688e-03
1.799464225769042969e-03
1.728415489196777344e-03
1.787424087524414062e-03
1.862525939941406250e-03
1.832842826843261719e-03
1.878142356872558594e-03
1.868009567260742188e-03
1.866579055786132812e-03
1.890420913696289062e-03
1.856923103332519531e-03
1.867413520812988281e-03
1.842617988586425781e-03
1.856684684753417969e-03
1.847863197326660156e-03
1.902222633361816406e-03
1.852631568908691406e-03
2.032160758972167969e-03
2.131581306457519531e-03
2.083659172058105469e-03
2.115011215209960938e-03
2.046465873718261719e-03
2.082586288452148438e-03
2.084255218505859375e-03
2.124071121215820312e-03
2.118110656738281250e-03
2.058386802673339844e-03
2.079963684082031250e-03
2.004623413085937500e-03
2.017140388488769531e-03
2.021074295043945312e-03
2.287030220031738281e-03
2.446174621582031250e-03
2.435445785522460938e-03
2.400875091552734375e-03
2.384543418884277344e-03
2.420783042907714844e-03
2.347230911254882812e-03
2.414703369140625000e-03
2.383112907409667969e-03
2.369880676269531250e-03
2.376079559326171875e-03
2.388477325439453125e-03
2.388715744018554688e-03
2.405405044555664062e-03
2.458333969116210938e-03
2.501010894775390625e-03
2.485632896423339844e-03
2.535104751586914062e-03
2.478361129760742188e-03
2.496242523193359375e-03
2.467155456542968750e-03
2.436041831970214844e-03
2.480983734130859375e-03
2.407312393188476562e-03
2.455592155456542969e-03
2.480149269104003906e-03
2.460598945617675781e-03
2.402901649475097656e-03
2.524256706237792969e-03
2.596139907836914062e-03
2.591133117675781250e-03
2.561211585998535156e-03
2.527475357055664062e-03
2.565145492553710938e-03
2.510905265808105469e-03
2.527832984924316406e-03
2.520442008972167969e-03
2.458691596984863281e-03
2.538084983825683594e-03
2.542972564697265625e-03
2.491712570190429688e-03
2.483963966369628906e-03
2.548575401306152344e-03
2.620339393615722656e-03
2.608180046081542969e-03
2.570390701293945312e-03
2.611279487609863281e-03
2.631902694702148438e-03
2.616286277770996094e-03
2.603411674499511719e-03
2.580523490905761719e-03
2.524375915527343750e-03
2.578377723693847656e-03
2.613425254821777344e-03
2.570867538452148438e-03
2.492189407348632812e-03
2.410650253295898438e-03
2.487182617187500000e-03
2.487659454345703125e-03
2.669811248779296875e-03
2.543210983276367188e-03
2.524971961975097656e-03
2.429485321044921875e-03
2.653479576110839844e-03
2.372980117797851562e-03
1.990199089050292969e-03
2.013325691223144531e-03
2.200841903686523438e-03
2.663612365722656250e-03
2.554297447204589844e-03
2.607703208923339844e-03
2.548336982727050781e-03
2.588272094726562500e-03
2.577662467956542969e-03
2.602219581604003906e-03
2.586960792541503906e-03
2.591013908386230469e-03
2.595424652099609375e-03
2.583622932434082031e-03
2.571225166320800781e-03
2.572894096374511719e-03
2.551317214965820312e-03
2.555489540100097656e-03
2.516746520996093750e-03
2.679467201232910156e-03
2.699613571166992188e-03
2.627253532409667969e-03
2.638101577758789062e-03
2.608537673950195312e-03
2.647519111633300781e-03
2.606511116027832031e-03
2.636671066284179688e-03
2.612113952636718750e-03
2.643585205078125000e-03
2.590656280517578125e-03
2.596020698547363281e-03
2.627968788146972656e-03
2.624869346618652344e-03
2.602815628051757812e-03
2.548694610595703125e-03
2.620339393615722656e-03
2.568602561950683594e-03
2.597093582153320312e-03
2.594709396362304688e-03
2.571463584899902344e-03
2.550005912780761719e-03
2.553462982177734375e-03
2.593040466308593750e-03
2.537608146667480469e-03
2.527475357055664062e-03
2.543568611145019531e-03
2.536416053771972656e-03
2.652406692504882812e-03
2.661347389221191406e-03
2.622961997985839844e-03
2.650976181030273438e-03
2.622485160827636719e-03
2.634882926940917969e-03
2.631187438964843750e-03
2.675294876098632812e-03
2.649664878845214844e-03
2.570390701293945312e-03
2.601265907287597656e-03
2.595782279968261719e-03
2.568364143371582031e-03
2.580523490905761719e-03
2.589225769042968750e-03
2.575039863586425781e-03
2.568602561950683594e-03
2.548098564147949219e-03
2.543330192565917969e-03
2.556920051574707031e-03
2.546548843383789062e-03
2.548098564147949219e-03
2.547383308410644531e-03
2.504706382751464844e-03
2.509474754333496094e-03
2.521276473999023438e-03
2.525806427001953125e-03
2.477169036865234375e-03
2.436637878417968750e-03
2.470970153808593750e-03
2.446055412292480469e-03
2.456188201904296875e-03
2.507209777832031250e-03
2.508997917175292969e-03
2.458572387695312500e-03
2.424836158752441406e-03
2.434015274047851562e-03
2.429127693176269531e-03
2.432942390441894531e-03
2.431273460388183594e-03
2.407550811767578125e-03
2.450585365295410156e-03
2.445459365844726562e-03
2.415537834167480469e-03
2.434253692626953125e-03
2.477288246154785156e-03
2.407073974609375000e-03
2.417922019958496094e-03
2.426505088806152344e-03
2.391934394836425781e-03
2.403259277343750000e-03
2.377986907958984375e-03
2.389311790466308594e-03
2.375483512878417969e-03
2.374410629272460938e-03
2.384662628173828125e-03
2.258896827697753906e-03
2.237796783447265625e-03
2.254486083984375000e-03
2.238750457763671875e-03
2.190709114074707031e-03
2.252578735351562500e-03
2.223849296569824219e-03
2.154946327209472656e-03
2.219557762145996094e-03
2.178311347961425781e-03
2.228736877441406250e-03
2.187967300415039062e-03
2.214908599853515625e-03
2.198815345764160156e-03
2.187132835388183594e-03
2.197623252868652344e-03
2.210617065429687500e-03
2.192020416259765625e-03
2.174615859985351562e-03
2.169370651245117188e-03
2.153038978576660156e-03
2.142190933227539062e-03
2.107739448547363281e-03
2.113938331604003906e-03
2.151370048522949219e-03
2.153396606445312500e-03
2.112627029418945312e-03
2.107143402099609375e-03
1.999020576477050781e-03
1.972436904907226562e-03
1.987457275390625000e-03
2.012252807617187500e-03
1.986861228942871094e-03
1.956343650817871094e-03
1.973867416381835938e-03
1.967430114746093750e-03
2.018094062805175781e-03
1.976609230041503906e-03
1.950263977050781250e-03
1.971960067749023438e-03
1.940608024597167969e-03
1.926183700561523438e-03
1.960515975952148438e-03
1.921296119689941406e-03
1.915931701660156250e-03
1.929402351379394531e-03
1.929759979248046875e-03
1.986026763916015625e-03
1.960635185241699219e-03
1.950263977050781250e-03
1.981139183044433594e-03
1.913785934448242188e-03
1.952409744262695312e-03
1.917839050292968750e-03
1.958489418029785156e-03
1.850008964538574219e-03
1.761674880981445312e-03
1.785039901733398438e-03
1.768469810485839844e-03
1.799345016479492188e-03
1.765370368957519531e-03
1.769900321960449219e-03
1.781344413757324219e-03
1.744508743286132812e-03
1.759886741638183594e-03
1.768112182617187500e-03
1.709461212158203125e-03
1.724362373352050781e-03
1.734375953674316406e-03
1.728653907775878906e-03
1.590013504028320312e-03
1.571178436279296875e-03
1.571774482727050781e-03
1.590728759765625000e-03
1.594543457031250000e-03
1.571178436279296875e-03
1.579880714416503906e-03
1.521944999694824219e-03
1.544713973999023438e-03
1.559734344482421875e-03
1.573443412780761719e-03
1.554012298583984375e-03
1.564145088195800781e-03
1.504421234130859375e-03
1.388192176818847656e-03
1.399040222167968750e-03
1.412153244018554688e-03
1.404047012329101562e-03
1.388669013977050781e-03
1.422166824340820312e-03
1.409411430358886719e-03
1.402854919433593750e-03
1.412272453308105469e-03
1.354098320007324219e-03
1.395940780639648438e-03
1.430988311767578125e-03
1.385211944580078125e-03
1.380801200866699219e-03
1.244783401489257812e-03
1.228690147399902344e-03
1.265525817871093750e-03
1.234292984008789062e-03
1.257300376892089844e-03
1.251220703125000000e-03
1.200556755065917969e-03
1.231431961059570312e-03
1.243233680725097656e-03
1.176834106445312500e-03
1.249909400939941406e-03
1.204371452331542969e-03
1.268267631530761719e-03
1.071214675903320312e-03
8.232593536376953125e-04
8.544921875000000000e-04
8.379220962524414062e-04
8.808374404907226562e-04
8.302927017211914062e-04
8.515119552612304688e-04
8.383989334106445312e-04
8.656978607177734375e-04
8.505582809448242188e-04
8.287429809570312500e-04
8.392333984375000000e-04
8.039474487304687500e-04
8.550882339477539062e-04
7.158517837524414062e-04
5.738735198974609375e-04
5.979537963867187500e-04
5.699396133422851562e-04
5.909204483032226562e-04
5.953311920166015625e-04
5.930662155151367188e-04
6.006956100463867188e-04
5.813837051391601562e-04
6.245374679565429688e-04
6.191730499267578125e-04
5.990266799926757812e-04
6.474256515502929688e-04
5.954504013061523438e-04
4.814863204956054688e-04
4.632472991943359375e-04
5.285739898681640625e-04
4.998445510864257812e-04
4.570484161376953125e-04
5.121231079101562500e-04
4.965066909790039062e-04
5.007982254028320312e-04
4.850625991821289062e-04
4.519224166870117188e-04
5.170106887817382812e-04
4.882812500000000000e-04
4.750490188598632812e-04
4.841089248657226562e-04
3.794431686401367188e-04
2.154111862182617188e-04
2.599954605102539062e-04
2.938508987426757812e-04
2.498626708984375000e-04
2.640485763549804688e-04
2.660751342773437500e-04
2.776384353637695312e-04
2.717971801757812500e-04
2.633333206176757812e-04
2.148151397705078125e-04
2.751350402832031250e-04
2.919435501098632812e-04
3.212690353393554688e-04
1.872777938842773438e-04
6.818771362304687500e-05
6.675720214843750000e-05
1.059770584106445312e-04
7.319450378417968750e-05
4.911422729492187500e-05
1.111030578613281250e-04
4.184246063232421875e-05
8.082389831542968750e-05
1.087188720703125000e-04
9.739398956298828125e-05
1.250505447387695312e-04
1.083612442016601562e-04
7.951259613037109375e-05
5.578994750976562500e-05
-9.298324584960937500e-06
-1.692771911621093750e-05
-5.006790161132812500e-05
-2.455711364746093750e-05
-2.503395080566406250e-06
-5.054473876953125000e-05
2.264976501464843750e-06
-6.520748138427734375e-05
-3.421306610107421875e-05
1.323223114013671875e-05
-4.661083221435546875e-05
9.059906005859375000e-06
1.537799835205078125e-05
-1.770257949829101562e-04
-2.532005310058593750e-04
-2.255439758300781250e-04
-2.503395080566406250e-04
-2.144575119018554688e-04
-2.425909042358398438e-04
-2.735853195190429688e-04
-2.750158309936523438e-04
-2.573728561401367188e-04
-2.768039703369140625e-04
-2.447366714477539062e-04
-2.655982971191406250e-04
-2.521276473999023438e-04
-1.913309097290039062e-04
-4.605054855346679688e-04
-4.903078079223632812e-04
-5.012750625610351562e-04
-4.944801330566406250e-04
-4.893541336059570312e-04
-5.208253860473632812e-04
-4.892349243164062500e-04
-4.388093948364257812e-04
-4.541873931884765625e-04
-4.435777664184570312e-04
-4.651546478271484375e-04
-4.588365554809570312e-04
-4.193782806396484375e-04
-4.662275314331054688e-04
-6.225109100341796875e-04
-7.104873657226562500e-04
-6.382465362548828125e-04
-7.066726684570312500e-04
-6.976127624511718750e-04
-6.521940231323242188e-04
-6.449222564697265625e-04
-6.648302078247070312e-04
-6.331205368041992188e-04
-6.262063980102539062e-04
-6.275177001953125000e-04
-6.437301635742187500e-04
-6.275177001953125000e-04
-6.235837936401367188e-04
-8.069276809692382812e-04
-8.612871170043945312e-04
-8.900165557861328125e-04
-8.802413940429687500e-04
-8.648633956909179688e-04
-8.974075317382812500e-04
-8.319616317749023438e-04
-8.364915847778320312e-04
-8.767843246459960938e-04
-8.456707000732421875e-04
-8.366107940673828125e-04
-8.419752120971679688e-04
-8.428096771240234375e-04
-8.329153060913085938e-04
-1.031160354614257812e-03
-1.066327095031738281e-03
-1.080274581909179688e-03
-1.109957695007324219e-03
-1.012086868286132812e-03
-1.055359840393066406e-03
-1.074671745300292969e-03
-1.058816909790039062e-03
-1.029491424560546875e-03
-1.035809516906738281e-03
-9.859800338745117188e-04
-1.008629798889160156e-03
-1.044392585754394531e-03
-1.025080680847167969e-03
-1.001477241516113281e-03
-1.010537147521972656e-03
-9.822845458984375000e-04
-9.975433349609375000e-04
-9.675025939941406250e-04
-9.485483169555664062e-04
-9.660720825195312500e-04
-9.933710098266601562e-04
-9.641647338867187500e-04
-9.816884994506835938e-04
-1.013040542602539062e-03
-9.908676147460937500e-04
-1.001000404357910156e-03
-9.695291519165039062e-04
-1.077890396118164062e-03
-1.098871231079101562e-03
-1.071691513061523438e-03
-1.087307929992675781e-03
-1.054406166076660156e-03
-1.093983650207519531e-03
-1.035690307617187500e-03
-1.033067703247070312e-03
-1.024603843688964844e-03
-1.023530960083007812e-03
-9.958744049072265625e-04
-9.829998016357421875e-04
-9.857416152954101562e-04
-9.748935699462890625e-04
-9.911060333251953125e-04
-9.540319442749023438e-04
-9.628534317016601562e-04
-9.639263153076171875e-04
-1.008152961730957031e-03
-9.915828704833984375e-04
-9.700059890747070312e-04
-9.789466857910156250e-04
-9.719133377075195312e-04
-9.295940399169921875e-04
-9.422302246093750000e-04
-9.448528289794921875e-04
-9.573698043823242188e-04
-9.915828704833984375e-04
-9.354352951049804688e-04
-8.988380432128906250e-04
-8.891820907592773438e-04
-9.295940399169921875e-04
-8.938312530517578125e-04
-8.935928344726562500e-04
-9.024143218994140625e-04
-8.940696716308593750e-04
-9.207725524902343750e-04
-8.854866027832031250e-04
-8.543729782104492188e-04
-8.760690689086914062e-04
-8.882284164428710938e-04
-8.589029312133789062e-04
-9.145736694335937500e-04
-9.235143661499023438e-04
-8.729696273803710938e-04
-8.916854858398437500e-04
-8.679628372192382812e-04
-8.827447891235351562e-04
-8.963346481323242188e-04
-9.032487869262695312e-04
-8.742809295654296875e-04
-8.966922760009765625e-04
-8.981227874755859375e-04
-8.889436721801757812e-04
-8.676052093505859375e-04
-8.379220962524414062e-04
-8.584260940551757812e-04
-8.170604705810546875e-04
-8.555650711059570312e-04
-7.975101470947265625e-04
-8.162260055541992188e-04
-7.679462432861328125e-04
-7.677078247070312500e-04
-7.778406143188476562e-04
-7.938146591186523438e-04
-8.410215377807617188e-04
-7.493495941162109375e-04
-7.926225662231445312e-04
-7.566213607788085938e-04
-8.111000061035156250e-04
-9.251832962036132812e-04
-8.575916290283203125e-04
-8.714199066162109375e-04
-8.572340011596679688e-04
-8.575916290283203125e-04
-8.667707443237304688e-04
-8.662939071655273438e-04
-8.450746536254882812e-04
-8.229017257690429688e-04
-8.294582366943359375e-04
-8.347034454345703125e-04
-8.271932601928710938e-04
-8.354187011718750000e-04
-8.367300033569335938e-04
-8.400678634643554688e-04
-7.903575897216796875e-04
-7.902383804321289062e-04
-8.244514465332031250e-04
-7.547140121459960938e-04
-7.568597793579101562e-04
-7.230043411254882812e-04
-7.989406585693359375e-04
-7.662773132324218750e-04
-7.157325744628906250e-04
-7.467269897460937500e-04
-6.839036941528320312e-04
-7.233619689941406250e-04
-7.426738739013671875e-04
-7.642507553100585938e-04
-7.115602493286132812e-04
-7.154941558837890625e-04
-6.911754608154296875e-04
-6.502866744995117188e-04
-7.103681564331054688e-04
-6.749629974365234375e-04
-7.686614990234375000e-04
-7.557868957519531250e-04
-7.138252258300781250e-04
-6.822347640991210938e-04
-6.532669067382812500e-04
-6.760358810424804688e-04
-6.823539733886718750e-04
-7.269382476806640625e-04
-6.598234176635742188e-04
-6.514787673950195312e-04
-6.297826766967773438e-04
-6.914138793945312500e-04
-6.421804428100585938e-04
-6.136894226074218750e-04
-6.539821624755859375e-04
-6.301403045654296875e-04
-6.241798400878906250e-04
-6.469488143920898438e-04
-6.405115127563476562e-04
-6.330013275146484375e-04
-6.759166717529296875e-04
-6.386041641235351562e-04
-6.165504455566406250e-04
-6.353855133056640625e-04
-6.141662597656250000e-04
-6.496906280517578125e-04
-6.182193756103515625e-04
-5.736351013183593750e-04
-6.152391433715820312e-04
-5.875825881958007812e-04
-6.058216094970703125e-04
-6.134510040283203125e-04
-5.314350128173828125e-04
-5.420446395874023438e-04
-5.850791931152343750e-04
-6.084442138671875000e-04
-5.798339843750000000e-04
-5.385875701904296875e-04
-5.396604537963867188e-04
-5.545616149902343750e-04
-5.233287811279296875e-04
-5.412101745605468750e-04
-5.375146865844726562e-04
-5.286931991577148438e-04
-5.286931991577148438e-04
-5.222558975219726562e-04
-5.675554275512695312e-04
-5.116462707519531250e-04
-5.289316177368164062e-04
-5.766153335571289062e-04
-5.155801773071289062e-04
-4.782676696777343750e-04
-5.270242691040039062e-04
-4.976987838745117188e-04
-4.945993423461914062e-04
-4.658699035644531250e-04
-4.750490188598632812e-04
-5.125999450683593750e-04
-4.552602767944335938e-04
-4.799365997314453125e-04
-4.806518554687500000e-04
-4.798173904418945312e-04
-5.173683166503906250e-04
-5.009174346923828125e-04
-4.657506942749023438e-04
-4.476308822631835938e-04
-4.862546920776367188e-04
-4.080533981323242188e-04
-4.520416259765625000e-04
-4.644393920898437500e-04
-3.869533538818359375e-04
-4.652738571166992188e-04
-3.652572631835937500e-04
-3.674030303955078125e-04
-3.584623336791992188e-04
-3.240108489990234375e-04
-3.707408905029296875e-04
-3.681182861328125000e-04
-4.115104675292968750e-04
-3.347396850585937500e-04
-3.348588943481445312e-04
-3.467798233032226562e-04
-3.535747528076171875e-04
-3.761053085327148438e-04
-3.867149353027343750e-04
-3.453493118286132812e-04
-3.290176391601562500e-04
-3.479719161987304688e-04
-3.787279129028320312e-04
-3.361701965332031250e-04
-3.542900085449218750e-04
-3.217458724975585938e-04
-3.224611282348632812e-04
-3.690719604492187500e-04
-3.623962402343750000e-04
-3.339052200317382812e-04
-3.352165222167968750e-04
-2.993345260620117188e-04
-3.409385681152343750e-04
-3.761053085327148438e-04
-3.570318222045898438e-04
-3.447532653808593750e-04
-3.281831741333007812e-04
-3.426074981689453125e-04
-3.539323806762695312e-04
-3.196001052856445312e-04
-3.266334533691406250e-04
-3.542900085449218750e-04
-3.025531768798828125e-04
-3.299713134765625000e-04
-3.169775009155273438e-04
-3.288984298706054688e-04
-3.554821014404296875e-04
-3.246068954467773438e-04
-3.110170364379882812e-04
-3.126859664916992188e-04
-2.903938293457031250e-04
-2.986192703247070312e-04
-2.639293670654296875e-04
-2.684593200683593750e-04
-2.619028091430664062e-04
-2.410411834716796875e-04
-2.973079681396484375e-04
-2.797842025756835938e-04
-2.138614654541015625e-04
-3.223419189453125000e-04
-3.032684326171875000e-04
-3.401041030883789062e-04
-2.899169921875000000e-04
-2.626180648803710938e-04
-3.305673599243164062e-04
-2.321004867553710938e-04
-2.238750457763671875e-04
-2.458095550537109375e-04
-2.242326736450195312e-04
-2.167224884033203125e-04
-2.334117889404296875e-04
-2.567768096923828125e-04
-2.136230468750000000e-04
-2.043247222900390625e-04
-2.019405364990234375e-04
-1.978874206542968750e-04
-1.901388168334960938e-04
-1.856088638305664062e-04
-2.015829086303710938e-04
-1.816749572753906250e-04
-2.152919769287109375e-04
-1.940727233886718750e-04
-2.410411834716796875e-04
-2.344846725463867188e-04
-1.635551452636718750e-04
-1.829862594604492188e-04
-1.811981201171875000e-04
-2.123117446899414062e-04
-2.312660217285156250e-04
-1.759529113769531250e-04
-1.363754272460937500e-04
-9.584426879882812500e-05
-1.462697982788085938e-04
-1.562833786010742188e-04
-1.631975173950195312e-04
-1.572370529174804688e-04
-1.449584960937500000e-04
-1.558065414428710938e-04
-1.102685928344726562e-04
-1.777410507202148438e-04
-1.481771469116210938e-04
-1.201629638671875000e-04
-1.243352890014648438e-04
-1.227855682373046875e-04
-1.529455184936523438e-04
-1.578330993652343750e-04
-1.689195632934570312e-04
-1.852512359619140625e-04
-1.592636108398437500e-04
-8.761882781982421875e-05
-1.051425933837890625e-04
-1.283884048461914062e-04
-8.845329284667968750e-05
-8.010864257812500000e-05
-8.964538574218750000e-05
-7.092952728271484375e-05
-1.001358032226562500e-04
-1.153945922851562500e-04
-1.091957092285156250e-04
-7.736682891845703125e-05
-6.735324859619140625e-05
-1.021623611450195312e-04
-3.993511199951171875e-05
-6.675720214843750000e-05
-1.024007797241210938e-04
-6.890296936035156250e-05
-4.863739013671875000e-05
-6.341934204101562500e-05
-6.103515625000000000e-05
-1.430511474609375000e-05
-1.680850982666015625e-05
4.172325134277343750e-06
-3.194808959960937500e-05
-4.577636718750000000e-05
-2.157688140869140625e-05
1.025199890136718750e-05
-3.325939178466796875e-05
3.933906555175781250e-06
-2.288818359375000000e-05
1.907348632812500000e-06
3.337860107421875000e-06
-8.940696716308593750e-06
2.920627593994140625e-05
5.269050598144531250e-05
1.192092895507812500e-05
2.312660217285156250e-05
2.288818359375000000e-05
6.556510925292968750e-05
1.006126403808593750e-04
6.771087646484375000e-05
7.975101470947265625e-05
5.328655242919921875e-05
1.080036163330078125e-04
8.368492126464843750e-05
6.890296936035156250e-05
3.743171691894531250e-05
6.031990051269531250e-05
6.401538848876953125e-05
8.094310760498046875e-05
5.757808685302734375e-05
6.294250488281250000e-05
1.304149627685546875e-04
1.041889190673828125e-04
7.867813110351562500e-05
1.305341720581054688e-04
1.150369644165039062e-04
1.282691955566406250e-04
1.760721206665039062e-04
9.894371032714843750e-05
1.199245452880859375e-04
1.131296157836914062e-04
1.062154769897460938e-04
8.261203765869140625e-05
7.390975952148437500e-05
1.099109649658203125e-04
1.320838928222656250e-04
1.307725906372070312e-04
6.973743438720703125e-05
7.390975952148437500e-05
1.367330551147460938e-04
1.369714736938476562e-04
1.169443130493164062e-04
1.535415649414062500e-04
1.285076141357421875e-04
1.395940780639648438e-04
1.370906829833984375e-04
1.541376113891601562e-04
1.059770584106445312e-04
1.754760742187500000e-04
1.406669616699218750e-04
1.510381698608398438e-04
1.566410064697265625e-04
1.808404922485351562e-04
1.887083053588867188e-04
1.689195632934570312e-04
1.609325408935546875e-04
1.348257064819335938e-04
1.813173294067382812e-04
1.664161682128906250e-04
1.430511474609375000e-04
1.372098922729492188e-04
1.742839813232421875e-04
1.472234725952148438e-04
1.465082168579101562e-04
1.796483993530273438e-04
1.963376998901367188e-04
1.251697540283203125e-04
2.025365829467773438e-04
1.739263534545898438e-04
1.910924911499023438e-04
1.401901245117187500e-04
1.281499862670898438e-04
1.507997512817382812e-04
1.478195190429687500e-04
2.343654632568359375e-04
1.819133758544921875e-04
1.957416534423828125e-04
1.699924468994140625e-04
1.634359359741210938e-04
1.795291900634765625e-04
1.701116561889648438e-04
2.323389053344726562e-04
2.136230468750000000e-04
2.120733261108398438e-04
1.466274261474609375e-04
1.921653747558593750e-04
2.491474151611328125e-04
2.088546752929687500e-04
2.062320709228515625e-04
1.999139785766601562e-04
2.478361129760742188e-04
2.498626708984375000e-04
2.515316009521484375e-04
2.261400222778320312e-04
2.069473266601562500e-04
2.062320709228515625e-04
2.244710922241210938e-04
2.020597457885742188e-04
2.233982086181640625e-04
2.437829971313476562e-04
2.197027206420898438e-04
2.208948135375976562e-04
2.373456954956054688e-04
2.292394638061523438e-04
2.236366271972656250e-04
2.357959747314453125e-04
2.572536468505859375e-04
2.434253692626953125e-04
2.564191818237304688e-04
2.627372741699218750e-04
2.706050872802734375e-04
2.423524856567382812e-04
2.174377441406250000e-04
2.356767654418945312e-04
2.107620239257812500e-04
2.266168594360351562e-04
2.157688140869140625e-04
2.012252807617187500e-04
2.173185348510742188e-04
2.729892730712890625e-04
2.363920211791992188e-04
2.471208572387695312e-04
1.844167709350585938e-04
1.105070114135742188e-04
1.085996627807617188e-04
1.267194747924804688e-04
2.862215042114257812e-04
1.108646392822265625e-04
1.975297927856445312e-04
8.141994476318359375e-05
2.874135971069335938e-04
-1.120567321777343750e-05
-3.492832183837890625e-04
-3.281831741333007812e-04
-2.110004425048828125e-04
2.795457839965820312e-04
2.152919769287109375e-04
2.797842025756835938e-04
2.340078353881835938e-04
3.006458282470703125e-04
3.100633621215820312e-04
3.464221954345703125e-04
3.223419189453125000e-04
3.153085708618164062e-04
3.129243850708007812e-04
3.373622894287109375e-04
2.753734588623046875e-04
2.715587615966796875e-04
2.672672271728515625e-04
2.956390380859375000e-04
3.005266189575195312e-04
3.070831298828125000e-04
3.274679183959960938e-04
3.074407577514648438e-04
3.247261047363281250e-04
2.785921096801757812e-04
3.319978713989257812e-04
2.819299697875976562e-04
3.166198730468750000e-04
3.613233566284179688e-04
3.181695938110351562e-04
2.757310867309570312e-04
2.781152725219726562e-04
3.080368041992187500e-04
3.248453140258789062e-04
2.771615982055664062e-04
2.832412719726562500e-04
3.662109375000000000e-04
3.355741500854492188e-04
3.527402877807617188e-04
3.029108047485351562e-04
3.321170806884765625e-04
3.533363342285156250e-04
3.073215484619140625e-04
3.204345703125000000e-04
3.414154052734375000e-04
3.244876861572265625e-04
3.343820571899414062e-04
3.955364227294921875e-04
3.815889358520507812e-04
3.467798233032226562e-04
3.829002380371093750e-04
3.294944763183593750e-04
3.379583358764648438e-04
3.761053085327148438e-04
4.005432128906250000e-04
4.205703735351562500e-04
3.647804260253906250e-04
4.004240036010742188e-04
4.122257232666015625e-04
3.730058670043945312e-04
4.193782806396484375e-04
4.172325134277343750e-04
3.930330276489257812e-04
3.668069839477539062e-04
3.659725189208984375e-04
3.197193145751953125e-04
3.263950347900390625e-04
3.954172134399414062e-04
3.670454025268554688e-04
3.701448440551757812e-04
3.023147583007812500e-04
3.894567489624023438e-04
2.914667129516601562e-04
2.417564392089843750e-04
2.219676971435546875e-04
2.200603485107421875e-04
2.344846725463867188e-04
1.544952392578125000e-04
1.676082611083984375e-04
4.839897155761718750e-05
4.208087921142578125e-05
4.649162292480468750e-05
5.972385406494140625e-05
8.428096771240234375e-05
1.131296157836914062e-04
3.206729888916015625e-05
-2.987384796142578125e-04
-3.546476364135742188e-04
-2.716779708862304688e-04
-1.854896545410156250e-04
-6.997585296630859375e-05
-9.024143218994140625e-05
1.645088195800781250e-05
8.773803710937500000e-05
1.454353332519531250e-04
2.906322479248046875e-04
4.827976226806640625e-04
4.959106445312500000e-04
6.468296051025390625e-04
7.655620574951171875e-04
4.526376724243164062e-04
5.564689636230468750e-04
7.196664810180664062e-04
6.276369094848632812e-04
9.179115295410156250e-04
1.029729843139648438e-03
1.196265220642089844e-03
1.422882080078125000e-03
1.482248306274414062e-03
1.703619956970214844e-03
1.921176910400390625e-03
1.970529556274414062e-03
2.159833908081054688e-03
2.486109733581542969e-03
2.320051193237304688e-03
2.672076225280761719e-03
2.292275428771972656e-03
1.131296157836914062e-03
1.272678375244140625e-03
1.477479934692382812e-03
1.513004302978515625e-03
1.752376556396484375e-03
1.936912536621093750e-03
2.235531806945800781e-03
2.447009086608886719e-03
2.465724945068359375e-03
2.498865127563476562e-03
2.683162689208984375e-03
2.544164657592773438e-03
2.709269523620605469e-03
1.770734786987304688e-03
-3.192424774169921875e-04
-3.757476806640625000e-04
-1.568794250488281250e-04
-3.482103347778320312e-04
-1.639127731323242188e-04
1.046657562255859375e-04
2.229213714599609375e-04
7.808208465576171875e-05
1.043081283569335938e-04
-8.463859558105468750e-06
-2.598762512207031250e-05
1.120567321777343750e-05
1.143217086791992188e-04
-9.263753890991210938e-04
-2.877950668334960938e-03
-2.998828887939453125e-03
-2.871274948120117188e-03
-3.064513206481933594e-03
-2.921462059020996094e-03
-2.717852592468261719e-03
-2.595424652099609375e-03
-2.633452415466308594e-03
-2.452373504638671875e-03
-2.428889274597167969e-03
-2.416849136352539062e-03
-2.357006072998046875e-03
-2.502560615539550781e-03
-3.099560737609863281e-03
-4.221081733703613281e-03
-4.424691200256347656e-03
-4.566431045532226562e-03
-4.905700683593750000e-03
-4.929661750793457031e-03
-4.972577095031738281e-03
-5.179882049560546875e-03
-5.421400070190429688e-03
-5.594730377197265625e-03
-5.738615989685058594e-03
-5.936503410339355469e-03
-5.618810653686523438e-03
-6.126642227172851562e-03
-4.381418228149414062e-03
-1.531958580017089844e-03
-1.533985137939453125e-03
-1.389980316162109375e-03
-1.414895057678222656e-03
-1.453876495361328125e-03
-1.714825630187988281e-03
-2.047538757324218750e-03
-2.292156219482421875e-03
-2.626180648803710938e-03
-2.889633178710937500e-03
-3.171563148498535156e-03
-2.936601638793945312e-03
-3.643035888671875000e-03
-1.543879508972167969e-03
2.323746681213378906e-03
2.149701118469238281e-03
2.165794372558593750e-03
2.193212509155273438e-03
2.087831497192382812e-03
1.968264579772949219e-03
1.825690269470214844e-03
1.886248588562011719e-03
1.618385314941406250e-03
1.589655876159667969e-03
1.257896423339843750e-03
1.810312271118164062e-03
1.156568527221679688e-03
3.695964813232421875e-03
8.506894111633300781e-03
8.299708366394042969e-03
8.364558219909667969e-03
8.456468582153320312e-03
8.121371269226074219e-03
7.904410362243652344e-03
7.615923881530761719e-03
7.534503936767578125e-03
7.167220115661621094e-03
7.091999053955078125e-03
6.551146507263183594e-03
7.142305374145507812e-03
6.213307380676269531e-03
8.702516555786132812e-03
1.354646682739257812e-02
1.293408870697021484e-02
1.300954818725585938e-02
1.294565200805664062e-02
1.259124279022216797e-02
1.241970062255859375e-02
1.232647895812988281e-02
1.230859756469726562e-02
1.208698749542236328e-02
1.212823390960693359e-02
1.158082485198974609e-02
1.219940185546875000e-02
1.106286048889160156e-02
1.396834850311279297e-02
1.904332637786865234e-02
1.828396320343017578e-02
1.853311061859130859e-02
1.835727691650390625e-02
1.794219017028808594e-02
1.770246028900146484e-02
1.750802993774414062e-02
1.736283302307128906e-02
1.702678203582763672e-02
1.692128181457519531e-02
1.620185375213623047e-02
1.664233207702636719e-02
1.530981063842773438e-02
1.873838901519775391e-02
2.374660968780517578e-02
2.286291122436523438e-02
2.308547496795654297e-02
2.270555496215820312e-02
2.253782749176025391e-02
2.229464054107666016e-02
2.232873439788818359e-02
2.229082584381103516e-02
2.219545841217041016e-02
2.226996421813964844e-02
2.180802822113037109e-02
2.240264415740966797e-02
2.121376991271972656e-02
2.532279491424560547e-02
3.041481971740722656e-02
2.969419956207275391e-02
3.035974502563476562e-02
3.024911880493164062e-02
3.036296367645263672e-02
3.019011020660400391e-02
3.032612800598144531e-02
3.042411804199218750e-02
3.030669689178466797e-02
3.048384189605712891e-02
3.012013435363769531e-02
3.072631359100341797e-02
2.968871593475341797e-02
3.409004211425781250e-02
3.873622417449951172e-02
3.803932666778564453e-02
3.861618041992187500e-02
3.839397430419921875e-02
3.870940208435058594e-02
3.847646713256835938e-02
3.867387771606445312e-02
3.876674175262451172e-02
3.878545761108398438e-02
3.902268409729003906e-02
3.892731666564941406e-02
3.963351249694824219e-02
3.890287876129150391e-02
4.378306865692138672e-02
4.834449291229248047e-02
4.765737056732177734e-02
4.829156398773193359e-02
4.814589023590087891e-02
4.844987392425537109e-02
4.825139045715332031e-02
4.839777946472167969e-02
4.842185974121093750e-02
4.829967021942138672e-02
4.849743843078613281e-02
4.844558238983154297e-02
4.896092414855957031e-02
4.824960231781005859e-02
5.325758457183837891e-02
5.727279186248779297e-02
5.647611618041992188e-02
5.711019039154052734e-02
5.682277679443359375e-02
5.715620517730712891e-02
5.694842338562011719e-02
5.720615386962890625e-02
5.730462074279785156e-02
5.731701850891113281e-02
5.754089355468750000e-02
5.746161937713623047e-02
5.798983573913574219e-02
5.718696117401123047e-02
6.245625019073486328e-02
6.630003452301025391e-02
6.534421443939208984e-02
6.600356101989746094e-02
6.572961807250976562e-02
6.598699092864990234e-02
6.575083732604980469e-02
6.596016883850097656e-02
6.588542461395263672e-02
6.578445434570312500e-02
6.578063964843750000e-02
6.557571887969970703e-02
6.604182720184326172e-02
6.515908241271972656e-02
7.067704200744628906e-02
7.427191734313964844e-02
7.313203811645507812e-02
7.365345954895019531e-02
7.303583621978759766e-02
7.309806346893310547e-02
7.255828380584716797e-02
7.260620594024658203e-02
7.237684726715087891e-02
7.218301296234130859e-02
7.190752029418945312e-02
7.159054279327392578e-02
7.169747352600097656e-02
7.085609436035156250e-02
7.633471488952636719e-02
7.919573783874511719e-02
7.807946205139160156e-02
7.852125167846679688e-02
7.789254188537597656e-02
7.790601253509521484e-02
7.735633850097656250e-02
7.741308212280273438e-02
7.725358009338378906e-02
7.711040973663330078e-02
7.677125930786132812e-02
7.661640644073486328e-02
7.695221900939941406e-02
7.641959190368652344e-02
8.253335952758789062e-02
8.516156673431396484e-02
8.408975601196289062e-02
8.458030223846435547e-02
8.378887176513671875e-02
8.399629592895507812e-02
8.342611789703369141e-02
8.344638347625732422e-02
8.299350738525390625e-02
8.283317089080810547e-02
8.253288269042968750e-02
8.256292343139648438e-02
8.277916908264160156e-02
8.217084407806396484e-02
8.840012550354003906e-02
9.062504768371582031e-02
8.949136734008789062e-02
8.980584144592285156e-02
8.908748626708984375e-02
8.920180797576904297e-02
8.866631984710693359e-02
8.875846862792968750e-02
8.830070495605468750e-02
8.842110633850097656e-02
8.812177181243896484e-02
8.787798881530761719e-02
8.793282508850097656e-02
8.746051788330078125e-02
9.403669834136962891e-02
9.617364406585693359e-02
9.510612487792968750e-02
9.538102149963378906e-02
9.469270706176757812e-02
9.508287906646728516e-02
9.459984302520751953e-02
9.462678432464599609e-02
9.432625770568847656e-02
9.433233737945556641e-02
9.390640258789062500e-02
9.360718727111816406e-02
9.322881698608398438e-02
9.301769733428955078e-02
9.957814216613769531e-02
1.011611223220825195e-01
9.993445873260498047e-02
1.001973152160644531e-01
9.946084022521972656e-02
9.960615634918212891e-02
9.893262386322021484e-02
9.873378276824951172e-02
9.856832027435302734e-02
9.848845005035400391e-02
9.795832633972167969e-02
9.776651859283447266e-02
9.708988666534423828e-02
9.712862968444824219e-02
1.032230854034423828e-01
1.047650575637817383e-01
1.038600206375122070e-01
1.042008399963378906e-01
1.033866405487060547e-01
1.032069921493530273e-01
1.028815507888793945e-01
1.027474403381347656e-01
1.023312807083129883e-01
1.018992662429809570e-01
1.014291048049926758e-01
1.016644239425659180e-01
1.017603874206542969e-01
1.024571657180786133e-01
1.065895557403564453e-01
1.081081628799438477e-01
1.078656911849975586e-01
1.078832149505615234e-01
1.074038743972778320e-01
1.070972681045532227e-01
1.068186759948730469e-01
1.065491437911987305e-01
1.062366962432861328e-01
1.057834625244140625e-01
1.054536104202270508e-01
1.049408912658691406e-01
1.045496463775634766e-01
1.026692390441894531e-01
9.715831279754638672e-02
9.539330005645751953e-02
9.475684165954589844e-02
9.379351139068603516e-02
9.365165233612060547e-02
9.341669082641601562e-02
9.335327148437500000e-02
9.297502040863037109e-02
9.266495704650878906e-02
9.210908412933349609e-02
9.220135211944580078e-02
9.153485298156738281e-02
9.168124198913574219e-02
9.001708030700683594e-02
8.237731456756591797e-02
8.097660541534423828e-02
8.139479160308837891e-02
8.085787296295166016e-02
8.085513114929199219e-02
8.029961585998535156e-02
7.999551296234130859e-02
7.947444915771484375e-02
7.964825630187988281e-02
7.908701896667480469e-02
7.926166057586669922e-02
7.854735851287841797e-02
7.891142368316650391e-02
7.722687721252441406e-02
6.909883022308349609e-02
6.793260574340820312e-02
6.825780868530273438e-02
6.793057918548583984e-02
6.805014610290527344e-02
6.744539737701416016e-02
6.740164756774902344e-02
6.701993942260742188e-02
6.725072860717773438e-02
6.678128242492675781e-02
6.699204444885253906e-02
6.620514392852783203e-02
6.663203239440917969e-02
6.460320949554443359e-02
5.665957927703857422e-02
5.613374710083007812e-02
5.617797374725341797e-02
5.585932731628417969e-02
5.593526363372802734e-02
5.520570278167724609e-02
5.537772178649902344e-02
5.492293834686279297e-02
5.507743358612060547e-02
5.435323715209960938e-02
5.458843708038330078e-02
5.383634567260742188e-02
5.445635318756103516e-02
5.218720436096191406e-02
4.433012008666992188e-02
4.411506652832031250e-02
4.401910305023193359e-02
4.376125335693359375e-02
4.389834403991699219e-02
4.323673248291015625e-02
4.339551925659179688e-02
4.310011863708496094e-02
4.325211048126220703e-02
4.260063171386718750e-02
4.295337200164794922e-02
4.237186908721923828e-02
4.312074184417724609e-02
4.051423072814941406e-02
3.278911113739013672e-02
3.288245201110839844e-02
3.278601169586181641e-02
3.257298469543457031e-02
3.265142440795898438e-02
3.215289115905761719e-02
3.235626220703125000e-02
3.186964988708496094e-02
3.208625316619873047e-02
3.145146369934082031e-02
3.178894519805908203e-02
3.125333786010742188e-02
3.206276893615722656e-02
2.894151210784912109e-02
2.143311500549316406e-02
2.177321910858154297e-02
2.142667770385742188e-02
2.136707305908203125e-02
2.147257328033447266e-02
2.110779285430908203e-02
2.131760120391845703e-02
2.080535888671875000e-02
2.107095718383789062e-02
2.058756351470947266e-02
2.091193199157714844e-02
2.030301094055175781e-02
2.121627330780029297e-02
1.778459548950195312e-02
1.059961318969726562e-02
1.125061511993408203e-02
1.087820529937744141e-02
1.082706451416015625e-02
1.095163822174072266e-02
1.083958148956298828e-02
1.098608970642089844e-02
1.062965393066406250e-02
1.102256774902343750e-02
1.046097278594970703e-02
1.085937023162841797e-02
1.018738746643066406e-02
1.121962070465087891e-02
7.703304290771484375e-03
9.795427322387695312e-04
1.822113990783691406e-03
1.434564590454101562e-03
1.508116722106933594e-03
1.504063606262207031e-03
1.489162445068359375e-03
1.623988151550292969e-03
1.397848129272460938e-03
1.810789108276367188e-03
1.223564147949218750e-03
1.631259918212890625e-03
9.019374847412109375e-04
2.001762390136718750e-03
-1.997232437133789062e-03
-8.671283721923828125e-03
-7.717728614807128906e-03
-8.204698562622070312e-03
-7.929921150207519531e-03
-8.026957511901855469e-03
-8.185148239135742188e-03
-8.000493049621582031e-03
-8.123278617858886719e-03
-7.810115814208984375e-03
-8.358955383300781250e-03
-7.823467254638671875e-03
-8.623838424682617188e-03
-7.422566413879394531e-03
-1.173782348632812500e-02
-1.822888851165771484e-02
-1.709783077239990234e-02
-1.785230636596679688e-02
-1.760363578796386719e-02
-1.758575439453125000e-02
-1.775515079498291016e-02
-1.762151718139648438e-02
-1.764833927154541016e-02
-1.755535602569580078e-02
-1.796174049377441406e-02
-1.735270023345947266e-02
-1.817333698272705078e-02
-1.699411869049072266e-02
-2.175617218017578125e-02
-2.779734134674072266e-02
-2.641439437866210938e-02
-2.707970142364501953e-02
-2.669930458068847656e-02
-2.664077281951904297e-02
-2.661907672882080078e-02
-2.657198905944824219e-02
-2.651906013488769531e-02
-2.634477615356445312e-02
-2.659952640533447266e-02
-2.605378627777099609e-02
-2.665662765502929688e-02
-2.553629875183105469e-02
-3.082954883575439453e-02
-3.640639781951904297e-02
-3.505992889404296875e-02
-3.566050529479980469e-02
-3.517735004425048828e-02
-3.536927700042724609e-02
-3.526926040649414062e-02
-3.531551361083984375e-02
-3.524732589721679688e-02
-3.495740890502929688e-02
-3.509271144866943359e-02
-3.469312191009521484e-02
-3.527200222015380859e-02
-3.410851955413818359e-02
-3.988289833068847656e-02
-4.489004611968994141e-02
-4.359114170074462891e-02
-4.413044452667236328e-02
-4.349112510681152344e-02
-4.384207725524902344e-02
-4.356265068054199219e-02
-4.358220100402832031e-02
-4.358816146850585938e-02
-4.333269596099853516e-02
-4.325234889984130859e-02
-4.294812679290771484e-02
-4.347121715545654297e-02
-4.222404956817626953e-02
-4.824256896972656250e-02
-5.293262004852294922e-02
-5.176270008087158203e-02
-5.226528644561767578e-02
-5.166745185852050781e-02
-5.245828628540039062e-02
-5.216717720031738281e-02
-5.194640159606933594e-02
-5.172634124755859375e-02
-5.156934261322021484e-02
-5.145239830017089844e-02
-5.110895633697509766e-02
-5.138087272644042969e-02
-5.037844181060791016e-02
-5.730319023132324219e-02
-6.147682666778564453e-02
-5.991768836975097656e-02
-6.051611900329589844e-02
-5.982100963592529297e-02
-6.019616127014160156e-02
-5.959928035736083984e-02
-5.955433845520019531e-02
-5.945742130279541016e-02
-5.931234359741210938e-02
-5.926406383514404297e-02
-5.894088745117187500e-02
-5.883049964904785156e-02
-5.821359157562255859e-02
-6.577587127685546875e-02
-6.997883319854736328e-02
-6.859004497528076172e-02
-6.927001476287841797e-02
-6.870567798614501953e-02
-6.863439083099365234e-02
-6.813299655914306641e-02
-6.827402114868164062e-02
-6.792581081390380859e-02
-6.767833232879638672e-02
-6.756043434143066406e-02
-6.742835044860839844e-02
-6.766009330749511719e-02
-6.774604320526123047e-02
-7.397568225860595703e-02
-7.726812362670898438e-02
-7.644021511077880859e-02
-7.699787616729736328e-02
-7.664525508880615234e-02
-7.668948173522949219e-02
-7.632660865783691406e-02
-7.625198364257812500e-02
-7.572805881500244141e-02
-7.585680484771728516e-02
-7.565402984619140625e-02
-7.505321502685546875e-02
-7.488560676574707031e-02
-7.408738136291503906e-02
-7.352542877197265625e-02
-7.274436950683593750e-02
-7.207381725311279297e-02
-7.186532020568847656e-02
-7.144236564636230469e-02
-7.139182090759277344e-02
-7.134258747100830078e-02
-7.108175754547119141e-02
-7.074046134948730469e-02
-7.091128826141357422e-02
-7.078671455383300781e-02
-7.036054134368896484e-02
-7.038879394531250000e-02
-7.003796100616455078e-02
-6.784045696258544922e-02
-6.664228439331054688e-02
-6.683135032653808594e-02
-6.667566299438476562e-02
-6.643700599670410156e-02
-6.628203392028808594e-02
-6.608605384826660156e-02
-6.587314605712890625e-02
-6.584358215332031250e-02
-6.574094295501708984e-02
-6.550419330596923828e-02
-6.517314910888671875e-02
-6.513023376464843750e-02
-6.509816646575927734e-02
-6.262826919555664062e-02
-6.165909767150878906e-02
-6.188416481018066406e-02
-6.161487102508544922e-02
-6.164765357971191406e-02
-6.140947341918945312e-02
-6.123673915863037109e-02
-6.104922294616699219e-02
-6.103169918060302734e-02
-6.084728240966796875e-02
-6.085419654846191406e-02
-6.054151058197021484e-02
-6.037437915802001953e-02
-6.043541431427001953e-02
-5.787587165832519531e-02
-5.710184574127197266e-02
-5.726146697998046875e-02
-5.680191516876220703e-02
-5.700218677520751953e-02
-5.682420730590820312e-02
-5.679333209991455078e-02
-5.666744709014892578e-02
-5.656599998474121094e-02
-5.635702610015869141e-02
-5.643630027770996094e-02
-5.612802505493164062e-02
-5.601382255554199219e-02
-5.600750446319580078e-02
-5.346691608428955078e-02
-5.280625820159912109e-02
-5.285942554473876953e-02
-5.244636535644531250e-02
-5.250918865203857422e-02
-5.226325988769531250e-02
-5.220198631286621094e-02
-5.201220512390136719e-02
-5.196714401245117188e-02
-5.161201953887939453e-02
-5.154848098754882812e-02
-5.126035213470458984e-02
-5.126810073852539062e-02
-5.126416683197021484e-02
-4.892873764038085938e-02
-4.832637310028076172e-02
-4.850852489471435547e-02
-4.812026023864746094e-02
-4.810357093811035156e-02
-4.801011085510253906e-02
-4.800963401794433594e-02
-4.782867431640625000e-02
-4.783320426940917969e-02
-4.761075973510742188e-02
-4.756426811218261719e-02
-4.730999469757080078e-02
-4.727721214294433594e-02
-4.713547229766845703e-02
-4.481303691864013672e-02
-4.399204254150390625e-02
-4.408240318298339844e-02
-4.367005825042724609e-02
-4.360580444335937500e-02
-4.361987113952636719e-02
-4.353058338165283203e-02
-4.320967197418212891e-02
-4.322206974029541016e-02
-4.317414760589599609e-02
-4.310715198516845703e-02
-4.277253150939941406e-02
-4.257249832153320312e-02
-4.204142093658447266e-02
-4.036855697631835938e-02
-3.979337215423583984e-02
-3.982257843017578125e-02
-3.961312770843505859e-02
-3.942918777465820312e-02
-3.953158855438232422e-02
-3.940057754516601562e-02
-3.901863098144531250e-02
-3.880894184112548828e-02
-3.897154331207275391e-02
-3.933405876159667969e-02
-3.928101062774658203e-02
-3.913807868957519531e-02
-3.874003887176513672e-02
-3.851675987243652344e-02
-3.869342803955078125e-02
-3.868794441223144531e-02
-3.866732120513916016e-02
-3.831410408020019531e-02
-3.852343559265136719e-02
-3.855538368225097656e-02
-3.876340389251708984e-02
-3.849196434020996094e-02
-3.898298740386962891e-02
-4.000353813171386719e-02
-3.989422321319580078e-02
-3.919887542724609375e-02
-3.775644302368164062e-02
-3.736865520477294922e-02
-3.703355789184570312e-02
-3.682827949523925781e-02
-3.680610656738281250e-02
-3.657972812652587891e-02
-3.649795055389404297e-02
-3.649270534515380859e-02
-3.662395477294921875e-02
-3.624594211578369141e-02
-3.612327575683593750e-02
-3.642678260803222656e-02
-3.629434108734130859e-02
-3.603994846343994141e-02
-3.553140163421630859e-02
-3.556978702545166016e-02
-3.571915626525878906e-02
-3.569245338439941406e-02
-3.573608398437500000e-02
-3.552687168121337891e-02
-3.544485569000244141e-02
-3.523802757263183594e-02
-3.536188602447509766e-02
-3.506302833557128906e-02
-3.496468067169189453e-02
-3.520596027374267578e-02
-3.500151634216308594e-02
-3.500413894653320312e-02
-3.476548194885253906e-02
-3.471195697784423828e-02
-3.472459316253662109e-02
-3.464901447296142578e-02
-3.462445735931396484e-02
-3.452837467193603516e-02
-3.451669216156005859e-02
-3.420460224151611328e-02
-3.421175479888916016e-02
-3.399658203125000000e-02
-3.382670879364013672e-02
-3.393793106079101562e-02
-3.368628025054931641e-02
-3.376913070678710938e-02
-3.376054763793945312e-02
-3.366732597351074219e-02
-3.344452381134033203e-02
-3.322362899780273438e-02
-3.309226036071777344e-02
-3.289735317230224609e-02
-3.290510177612304688e-02
-3.277969360351562500e-02
-3.276729583740234375e-02
-3.255379199981689453e-02
-3.244507312774658203e-02
-3.246629238128662109e-02
-3.221309185028076172e-02
-3.207659721374511719e-02
-3.211557865142822266e-02
-3.200113773345947266e-02
-3.185915946960449219e-02
-3.180313110351562500e-02
-3.177046775817871094e-02
-3.174722194671630859e-02
-3.165018558502197266e-02
-3.158104419708251953e-02
-3.149080276489257812e-02
-3.126204013824462891e-02
-3.113985061645507812e-02
-3.121316432952880859e-02
-3.111779689788818359e-02
-3.096687793731689453e-02
-3.107094764709472656e-02
-3.094851970672607422e-02
-3.077864646911621094e-02
-3.064954280853271484e-02
-3.066265583038330078e-02
-3.059530258178710938e-02
-3.045737743377685547e-02
-3.041613101959228516e-02
-3.041648864746093750e-02
-3.025388717651367188e-02
-3.001308441162109375e-02
-3.002750873565673828e-02
-2.992606163024902344e-02
-2.984464168548583984e-02
-2.983164787292480469e-02
-2.974677085876464844e-02
-2.960658073425292969e-02
-2.953374385833740234e-02
-2.952539920806884766e-02
-2.951264381408691406e-02
-2.938210964202880859e-02
-2.935385704040527344e-02
-2.944850921630859375e-02
-2.936804294586181641e-02
-2.915704250335693359e-02
-2.900028228759765625e-02
-2.891898155212402344e-02
-2.876949310302734375e-02
-2.876865863800048828e-02
-2.866756916046142578e-02
-2.848792076110839844e-02
-2.843451499938964844e-02
-2.844166755676269531e-02
-2.844154834747314453e-02
-2.828967571258544922e-02
-2.828490734100341797e-02
-2.832126617431640625e-02
-2.819919586181640625e-02
-2.798664569854736328e-02
-2.779424190521240234e-02
-2.770519256591796875e-02
-2.762472629547119141e-02
-2.768814563751220703e-02
-2.758610248565673828e-02
-2.733433246612548828e-02
-2.731668949127197266e-02
-2.733743190765380859e-02
-2.718818187713623047e-02
-2.708280086517333984e-02
-2.708339691162109375e-02
-2.712297439575195312e-02
-2.703571319580078125e-02
-2.689385414123535156e-02
-2.666485309600830078e-02
-2.655553817749023438e-02
-2.654075622558593750e-02
-2.668237686157226562e-02
-2.661573886871337891e-02
-2.639877796173095703e-02
-2.640497684478759766e-02
-2.639865875244140625e-02
-2.614831924438476562e-02
-2.599787712097167969e-02
-2.608454227447509766e-02
-2.603173255920410156e-02
-2.598595619201660156e-02
-2.598738670349121094e-02
-2.585804462432861328e-02
-2.567267417907714844e-02
-2.561247348785400391e-02
-2.575826644897460938e-02
-2.569830417633056641e-02
-2.554869651794433594e-02
-2.557218074798583984e-02
-2.561557292938232422e-02
-2.543818950653076172e-02
-2.534198760986328125e-02
-2.537524700164794922e-02
-2.531361579895019531e-02
-2.517330646514892578e-02
-2.518594264984130859e-02
-2.497458457946777344e-02
-2.464795112609863281e-02
-2.451121807098388672e-02
-2.448976039886474609e-02
-2.435827255249023438e-02
-2.429330348968505859e-02
-2.435612678527832031e-02
-2.428948879241943359e-02
-2.418208122253417969e-02
-2.403807640075683594e-02
-2.397954463958740234e-02
-2.397608757019042969e-02
-2.382695674896240234e-02
-2.382528781890869141e-02
-2.373480796813964844e-02
-2.365231513977050781e-02
-2.361679077148437500e-02
-2.346193790435791016e-02
-2.333331108093261719e-02
-2.335548400878906250e-02
-2.334260940551757812e-02
-2.323710918426513672e-02
-2.316033840179443359e-02
-2.302837371826171875e-02
-2.297353744506835938e-02
-2.301609516143798828e-02
-2.290391921997070312e-02
-2.290928363800048828e-02
-2.290582656860351562e-02
-2.288269996643066406e-02
-2.286720275878906250e-02
-2.273797988891601562e-02
-2.254986763000488281e-02
-2.258563041687011719e-02
-2.253842353820800781e-02
-2.239871025085449219e-02
-2.242076396942138672e-02
-2.231001853942871094e-02
-2.221477031707763672e-02
-2.226114273071289062e-02
-2.209317684173583984e-02
-2.201116085052490234e-02
-2.205395698547363281e-02
-2.198421955108642578e-02
-2.196156978607177734e-02
-2.177798748016357422e-02
-2.164113521575927734e-02
-2.170383930206298828e-02
-2.158224582672119141e-02
-2.142000198364257812e-02
-2.146124839782714844e-02
-2.139866352081298828e-02
-2.126896381378173828e-02
-2.129280567169189453e-02
-2.126979827880859375e-02
-2.116358280181884766e-02
-2.115404605865478516e-02
-2.113938331604003906e-02
-2.106606960296630859e-02
-2.106750011444091797e-02
-2.092623710632324219e-02
-2.094185352325439453e-02
-2.082169055938720703e-02
-2.063691616058349609e-02
-2.063918113708496094e-02
-2.052760124206542969e-02
-2.038919925689697266e-02
-2.036952972412109375e-02
-2.028870582580566406e-02
-2.021861076354980469e-02
-2.021992206573486328e-02
-2.021300792694091797e-02
-2.006351947784423828e-02
-1.999139785766601562e-02
-1.991438865661621094e-02
-1.988327503204345703e-02
-1.975715160369873047e-02
-1.963615417480468750e-02
-1.967906951904296875e-02
-1.959550380706787109e-02
-1.943767070770263672e-02
-1.937603950500488281e-02
-1.932561397552490234e-02
-1.935827732086181641e-02
-1.934218406677246094e-02
-1.928424835205078125e-02
-1.914119720458984375e-02
-1.910734176635742188e-02
-1.916170120239257812e-02
-1.914703845977783203e-02
-1.902854442596435547e-02
-1.898288726806640625e-02
-1.902997493743896484e-02
-1.900279521942138672e-02
-1.880991458892822266e-02
-1.867103576660156250e-02
-1.861286163330078125e-02
-1.860535144805908203e-02
-1.856875419616699219e-02
-1.851558685302734375e-02
-1.842021942138671875e-02
-1.837122440338134766e-02
-1.827406883239746094e-02
-1.818645000457763672e-02
-1.814663410186767578e-02
-1.809024810791015625e-02
-1.804447174072265625e-02
-1.792812347412109375e-02
-1.783454418182373047e-02
-1.774835586547851562e-02
-1.767110824584960938e-02
-1.771068572998046875e-02
-1.766788959503173828e-02
-1.761412620544433594e-02
-1.755166053771972656e-02
-1.753211021423339844e-02
-1.742613315582275391e-02
-1.739525794982910156e-02
-1.731407642364501953e-02
-1.723539829254150391e-02
-1.720142364501953125e-02
-1.706302165985107422e-02
-1.697731018066406250e-02
-1.687622070312500000e-02
-1.678979396820068359e-02
-1.678240299224853516e-02
-1.672089099884033203e-02
-1.665472984313964844e-02
-1.670813560485839844e-02
-1.669049263000488281e-02
-1.659607887268066406e-02
-1.655876636505126953e-02
-1.649832725524902344e-02
-1.639115810394287109e-02
-1.639401912689208984e-02
-1.630544662475585938e-02
-1.624596118927001953e-02
-1.627862453460693359e-02
-1.612412929534912109e-02
-1.610910892486572266e-02
-1.609373092651367188e-02
-1.610434055328369141e-02
-1.608991622924804688e-02
-1.607275009155273438e-02
-1.600444316864013672e-02
-1.595163345336914062e-02
-1.581990718841552734e-02
-1.573169231414794922e-02
-1.573717594146728516e-02
-1.563501358032226562e-02
-1.555144786834716797e-02
-1.549303531646728516e-02
-1.537835597991943359e-02
-1.533138751983642578e-02
-1.530444622039794922e-02
-1.520180702209472656e-02
-1.520347595214843750e-02
-1.524746417999267578e-02
-1.506793498992919922e-02
-1.503491401672363281e-02
-1.492750644683837891e-02
-1.487135887145996094e-02
-1.488423347473144531e-02
-1.469576358795166016e-02
-1.475071907043457031e-02
-1.471567153930664062e-02
-1.468503475189208984e-02
-1.455521583557128906e-02
-1.450979709625244141e-02
-1.449072360992431641e-02
-1.441168785095214844e-02
-1.447618007659912109e-02
-1.432681083679199219e-02
-1.419985294342041016e-02
-1.416778564453125000e-02
-1.409780979156494141e-02
-1.407527923583984375e-02
-1.397216320037841797e-02
-1.395142078399658203e-02
-1.400613784790039062e-02
-1.395440101623535156e-02
-1.387751102447509766e-02
-1.382374763488769531e-02
-1.384246349334716797e-02
-1.376807689666748047e-02
-1.381599903106689453e-02
-1.372504234313964844e-02
-1.352977752685546875e-02
-1.350831985473632812e-02
-1.347219944000244141e-02
-1.343131065368652344e-02
-1.330792903900146484e-02
-1.325535774230957031e-02
-1.327335834503173828e-02
-1.326632499694824219e-02
-1.315271854400634766e-02
-1.309943199157714844e-02
-1.310598850250244141e-02
-1.308584213256835938e-02
-1.309978961944580078e-02
-1.298666000366210938e-02
-1.286959648132324219e-02
-1.288568973541259766e-02
-1.287114620208740234e-02
-1.284277439117431641e-02
-1.280272006988525391e-02
-1.275372505187988281e-02
-1.267004013061523438e-02
-1.261651515960693359e-02
-1.253104209899902344e-02
-1.248705387115478516e-02
-1.238179206848144531e-02
-1.233935356140136719e-02
-1.238298416137695312e-02
-1.222801208496093750e-02
-1.215267181396484375e-02
-1.217281818389892578e-02
-1.220202445983886719e-02
-1.219177246093750000e-02
-1.214516162872314453e-02
-1.204121112823486328e-02
-1.200973987579345703e-02
-1.204752922058105469e-02
-1.199436187744140625e-02
-1.187527179718017578e-02
-1.184701919555664062e-02
-1.187133789062500000e-02
-1.185941696166992188e-02
-1.176261901855468750e-02
-1.171314716339111328e-02
-1.169359683990478516e-02
-1.167750358581542969e-02
-1.165711879730224609e-02
-1.157557964324951172e-02
-1.145756244659423828e-02
-1.134479045867919922e-02
-1.130080223083496094e-02
-1.124906539916992188e-02
-1.111590862274169922e-02
-1.103103160858154297e-02
-1.108491420745849609e-02
-1.110529899597167969e-02
-1.098561286926269531e-02
-1.092326641082763672e-02
-1.091444492340087891e-02
-1.089239120483398438e-02
-1.092004776000976562e-02
-1.084184646606445312e-02
-1.076257228851318359e-02
-1.070034503936767578e-02
-1.073598861694335938e-02
-1.072287559509277344e-02
-1.050090789794921875e-02
-1.051187515258789062e-02
-1.059508323669433594e-02
-1.053535938262939453e-02
-1.047825813293457031e-02
-1.040959358215332031e-02
-1.033425331115722656e-02
-1.026070117950439453e-02
-1.022756099700927734e-02
-1.018440723419189453e-02
-1.011407375335693359e-02
-1.005339622497558594e-02
-1.009941101074218750e-02
-1.004719734191894531e-02
-9.921550750732421875e-03
-9.909510612487792969e-03
-9.917378425598144531e-03
-9.852409362792968750e-03
-9.800672531127929688e-03
-9.755730628967285156e-03
-9.659290313720703125e-03
-9.584665298461914062e-03
-9.555935859680175781e-03
-9.532094001770019531e-03
-9.543061256408691406e-03
-9.513854980468750000e-03
-9.520411491394042969e-03
-9.528517723083496094e-03
-9.430646896362304688e-03
-9.431242942810058594e-03
-9.467959403991699219e-03
-9.389281272888183594e-03
-9.338617324829101562e-03
-9.305238723754882812e-03
-9.254097938537597656e-03
-9.248256683349609375e-03
-9.160757064819335938e-03
-9.089827537536621094e-03
-9.055972099304199219e-03
-9.011983871459960938e-03
-9.010553359985351562e-03
-8.989095687866210938e-03
-8.937835693359375000e-03
-8.911132812500000000e-03
-8.873701095581054688e-03
-8.808493614196777344e-03
-8.751988410949707031e-03
-8.705496788024902344e-03
-8.675575256347656250e-03
-8.636236190795898438e-03
-8.592963218688964844e-03
-8.532762527465820312e-03
-8.554935455322265625e-03
-8.493423461914062500e-03
-8.481144905090332031e-03
-8.541822433471679688e-03
-8.461117744445800781e-03
-8.432507514953613281e-03
-8.430480957031250000e-03
-8.266091346740722656e-03
-8.134007453918457031e-03
-8.136153221130371094e-03
-8.089780807495117188e-03
-8.074641227722167969e-03
-8.051633834838867188e-03
-7.979869842529296875e-03
-7.961392402648925781e-03
-7.823944091796875000e-03
-7.771611213684082031e-03
-7.808566093444824219e-03
-7.708311080932617188e-03
-7.571935653686523438e-03
-7.494330406188964844e-03
-7.203936576843261719e-03
-6.771206855773925781e-03
-6.654143333435058594e-03
-6.578445434570312500e-03
-6.545543670654296875e-03
-6.449103355407714844e-03
-6.451845169067382812e-03
-6.418943405151367188e-03
-6.317973136901855469e-03
-6.286382675170898438e-03
-6.262302398681640625e-03
-6.200194358825683594e-03
-6.071329116821289062e-03
-5.986213684082031250e-03
-5.608797073364257812e-03
-5.173444747924804688e-03
-5.105733871459960938e-03
-4.959940910339355469e-03
-4.891276359558105469e-03
-4.859685897827148438e-03
-4.849314689636230469e-03
-4.892349243164062500e-03
-4.763841629028320312e-03
-4.811525344848632812e-03
-4.766464233398437500e-03
-4.681825637817382812e-03
-4.607915878295898438e-03
-4.519343376159667969e-03
-4.141449928283691406e-03
-3.668785095214843750e-03
-3.551125526428222656e-03
-3.451585769653320312e-03
-3.396630287170410156e-03
-3.363609313964843750e-03
-3.396511077880859375e-03
-3.377318382263183594e-03
-3.307223320007324219e-03
-3.310561180114746094e-03
-3.354787826538085938e-03
-3.293514251708984375e-03
-3.175377845764160156e-03
-3.104090690612792969e-03
-2.706766128540039062e-03
-2.266168594360351562e-03
-2.166390419006347656e-03
-2.100348472595214844e-03
-2.066016197204589844e-03
-2.025961875915527344e-03
-2.000808715820312500e-03
-1.959800720214843750e-03
-1.922369003295898438e-03
-1.960277557373046875e-03
-1.986026763916015625e-03
-2.004981040954589844e-03
-1.905560493469238281e-03
-1.829504966735839844e-03
-1.465678215026855469e-03
-1.005053520202636719e-03
-8.888244628906250000e-04
-8.460283279418945312e-04
-7.936954498291015625e-04
-6.988048553466796875e-04
-7.098913192749023438e-04
-6.984472274780273438e-04
-5.822181701660156250e-04
-5.856752395629882812e-04
-6.265640258789062500e-04
-6.170272827148437500e-04
-5.326271057128906250e-04
-4.551410675048828125e-04
-8.201599121093750000e-05
3.074407577514648438e-04
3.545284271240234375e-04
4.540681838989257812e-04
5.255937576293945312e-04
5.692243576049804688e-04
5.623102188110351562e-04
6.308555603027343750e-04
7.199048995971679688e-04
7.101297378540039062e-04
6.800889968872070312e-04
7.104873657226562500e-04
8.058547973632812500e-04
7.911920547485351562e-04
1.174807548522949219e-03
1.585483551025390625e-03
1.649975776672363281e-03
1.734018325805664062e-03
1.766443252563476562e-03
1.826882362365722656e-03
1.832485198974609375e-03
1.882314682006835938e-03
1.975297927856445312e-03
1.987934112548828125e-03
1.953005790710449219e-03
1.986145973205566406e-03
2.043128013610839844e-03
2.053380012512207031e-03
2.448439598083496094e-03
2.713203430175781250e-03
2.667307853698730469e-03
2.793788909912109375e-03
2.821207046508789062e-03
2.825856208801269531e-03
2.834320068359375000e-03
2.889871597290039062e-03
2.989172935485839844e-03
2.961516380310058594e-03
2.953290939331054688e-03
2.974867820739746094e-03
3.000736236572265625e-03
3.104209899902343750e-03
3.388881683349609375e-03
3.545403480529785156e-03
3.583073616027832031e-03
3.666043281555175781e-03
3.707528114318847656e-03
3.679633140563964844e-03
3.651261329650878906e-03
3.729939460754394531e-03
3.711223602294921875e-03
3.717541694641113281e-03
3.749608993530273438e-03
3.816843032836914062e-03
3.865480422973632812e-03
3.880023956298828125e-03
4.245281219482421875e-03
4.415154457092285156e-03
4.388093948364257812e-03
4.462122917175292969e-03
4.490971565246582031e-03
4.504323005676269531e-03
4.462003707885742188e-03
4.446268081665039062e-03
4.467606544494628906e-03
4.492640495300292969e-03
4.431605339050292969e-03
4.438519477844238281e-03
4.507660865783691406e-03
4.561781883239746094e-03
4.771113395690917969e-03
4.867911338806152344e-03
4.916071891784667969e-03
5.008697509765625000e-03
5.005478858947753906e-03
4.965662956237792969e-03
4.939198493957519531e-03
4.975080490112304688e-03
4.976749420166015625e-03
4.971861839294433594e-03
4.992365837097167969e-03
5.091428756713867188e-03
5.142807960510253906e-03
5.250334739685058594e-03
5.564451217651367188e-03
5.709767341613769531e-03
5.743503570556640625e-03
5.852460861206054688e-03
5.852699279785156250e-03
5.864381790161132812e-03
5.849838256835937500e-03
5.859375000000000000e-03
5.839586257934570312e-03
5.833387374877929688e-03
5.848884582519531250e-03
5.841135978698730469e-03
5.919337272644042969e-03
6.006121635437011719e-03
6.290555000305175781e-03
6.405711174011230469e-03
6.466507911682128906e-03
6.504535675048828125e-03
6.506681442260742188e-03
6.516814231872558594e-03
6.515860557556152344e-03
6.541490554809570312e-03
6.486058235168457031e-03
6.463527679443359375e-03
6.475329399108886719e-03
6.590127944946289062e-03
6.635308265686035156e-03
6.693959236145019531e-03
7.032275199890136719e-03
7.122874259948730469e-03
7.155656814575195312e-03
7.227420806884765625e-03
7.260560989379882812e-03
7.248163223266601562e-03
7.221221923828125000e-03
7.254123687744140625e-03
7.221221923828125000e-03
7.221460342407226562e-03
7.268667221069335938e-03
7.311940193176269531e-03
7.321476936340332031e-03
7.409811019897460938e-03
7.630228996276855469e-03
7.630944252014160156e-03
7.632613182067871094e-03
7.716536521911621094e-03
7.694125175476074219e-03
7.619976997375488281e-03
7.662415504455566406e-03
7.657051086425781250e-03
7.621884346008300781e-03
7.555484771728515625e-03
7.574796676635742188e-03
7.691979408264160156e-03
7.684230804443359375e-03
7.755160331726074219e-03
7.877945899963378906e-03
7.934808731079101562e-03
7.973313331604003906e-03
7.983922958374023438e-03
7.942676544189453125e-03
7.978677749633789062e-03
7.967472076416015625e-03
8.004426956176757812e-03
8.008599281311035156e-03
8.014917373657226562e-03
7.991313934326171875e-03
8.015632629394531250e-03
8.050203323364257812e-03
8.130192756652832031e-03
8.362770080566406250e-03
8.412718772888183594e-03
8.465051651000976562e-03
8.426308631896972656e-03
8.444786071777343750e-03
8.454442024230957031e-03
8.467674255371093750e-03
8.524894714355468750e-03
8.491635322570800781e-03
8.542537689208984375e-03
8.649826049804687500e-03
8.690357208251953125e-03
8.740425109863281250e-03
8.847594261169433594e-03
9.092807769775390625e-03
9.262442588806152344e-03
9.281992912292480469e-03
9.296774864196777344e-03
9.345531463623046875e-03
9.415984153747558594e-03
9.448289871215820312e-03
9.429693222045898438e-03
9.490966796875000000e-03
9.526252746582031250e-03
9.533882141113281250e-03
9.595036506652832031e-03
9.651541709899902344e-03
9.753704071044921875e-03
9.979486465454101562e-03
1.001620292663574219e-02
1.008737087249755859e-02
1.010441780090332031e-02
1.007807254791259766e-02
1.014888286590576172e-02
1.013183593750000000e-02
1.016068458557128906e-02
1.016020774841308594e-02
1.020193099975585938e-02
1.025521755218505859e-02
1.035892963409423828e-02
1.041293144226074219e-02
1.055300235748291016e-02
1.109349727630615234e-02
1.124095916748046875e-02
1.127314567565917969e-02
1.136147975921630859e-02
1.145720481872558594e-02
1.147949695587158203e-02
1.147627830505371094e-02
1.152908802032470703e-02
1.152288913726806641e-02
1.159286499023437500e-02
1.159238815307617188e-02
1.160156726837158203e-02
1.162946224212646484e-02
1.169848442077636719e-02
1.194548606872558594e-02
1.198911666870117188e-02
1.200616359710693359e-02
1.199245452880859375e-02
1.197230815887451172e-02
1.198160648345947266e-02
1.195454597473144531e-02
1.192104816436767578e-02
1.192855834960937500e-02
1.192998886108398438e-02
1.199126243591308594e-02
1.206827163696289062e-02
1.204395294189453125e-02
1.218855381011962891e-02
1.243340969085693359e-02
1.248383522033691406e-02
1.253914833068847656e-02
1.256585121154785156e-02
1.254534721374511719e-02
1.258444786071777344e-02
1.256203651428222656e-02
1.256287097930908203e-02
1.256871223449707031e-02
1.257812976837158203e-02
1.262462139129638672e-02
1.262533664703369141e-02
1.258635520935058594e-02
1.263070106506347656e-02
1.282191276550292969e-02
1.279103755950927734e-02
1.283550262451171875e-02
1.274943351745605469e-02
1.270282268524169922e-02
1.270222663879394531e-02
1.263368129730224609e-02
1.262533664703369141e-02
1.260221004486083984e-02
1.262724399566650391e-02
1.260054111480712891e-02
1.271724700927734375e-02
1.276779174804687500e-02
1.294374465942382812e-02
1.321375370025634766e-02
1.326835155487060547e-02
1.336526870727539062e-02
1.340878009796142578e-02
1.348078250885009766e-02
1.353454589843750000e-02
1.358771324157714844e-02
1.360404491424560547e-02
1.358246803283691406e-02
1.362740993499755859e-02
1.363801956176757812e-02
1.373744010925292969e-02
1.373565196990966797e-02
1.384663581848144531e-02
1.404249668121337891e-02
1.401507854461669922e-02
1.400625705718994141e-02
1.400041580200195312e-02
1.401507854461669922e-02
1.403653621673583984e-02
1.402580738067626953e-02
1.402366161346435547e-02
1.399886608123779297e-02
1.405715942382812500e-02
1.410710811614990234e-02
1.416587829589843750e-02
1.417148113250732422e-02
1.429319381713867188e-02
1.450514793395996094e-02
1.456260681152343750e-02
1.469016075134277344e-02
1.464498043060302734e-02
1.471292972564697266e-02
1.475667953491210938e-02
1.480138301849365234e-02
1.479673385620117188e-02
1.486968994140625000e-02
1.498484611511230469e-02
1.494979858398437500e-02
1.488900184631347656e-02
1.474809646606445312e-02
1.477921009063720703e-02
1.488900184631347656e-02
1.503694057464599609e-02
1.482462882995605469e-02
1.479494571685791016e-02
1.466214656829833984e-02
1.480531692504882812e-02
1.454234123229980469e-02
1.411223411560058594e-02
1.413869857788085938e-02
1.432609558105468750e-02
1.474094390869140625e-02
1.471865177154541016e-02
1.477265357971191406e-02
1.490044593811035156e-02
1.512324810028076172e-02
1.511001586914062500e-02
1.517093181610107422e-02
1.520180702209472656e-02
1.524341106414794922e-02
1.526629924774169922e-02
1.535665988922119141e-02
1.535451412200927734e-02
1.538062095642089844e-02
1.544225215911865234e-02
1.547193527221679688e-02
1.546728610992431641e-02
1.548767089843750000e-02
1.555895805358886719e-02
1.565086841583251953e-02
1.565241813659667969e-02
1.560091972351074219e-02
1.561284065246582031e-02
1.557445526123046875e-02
1.555144786834716797e-02
1.549911499023437500e-02
1.544833183288574219e-02
1.538002490997314453e-02
1.535058021545410156e-02
1.530349254608154297e-02
1.526641845703125000e-02
1.529288291931152344e-02
1.539611816406250000e-02
1.551651954650878906e-02
1.555550098419189453e-02
1.556766033172607422e-02
1.560473442077636719e-02
1.564371585845947266e-02
1.570379734039306641e-02
1.569962501525878906e-02
1.569437980651855469e-02
1.568102836608886719e-02
1.567530632019042969e-02
1.567912101745605469e-02
1.560556888580322266e-02
1.556789875030517578e-02
1.562535762786865234e-02
1.568305492401123047e-02
1.565921306610107422e-02
1.557528972625732422e-02
1.557695865631103516e-02
1.549041271209716797e-02
1.544344425201416016e-02
1.542317867279052734e-02
1.533377170562744141e-02
1.532769203186035156e-02
1.528728008270263672e-02
1.528823375701904297e-02
1.525747776031494141e-02
1.522481441497802734e-02
1.514196395874023438e-02
1.516234874725341797e-02
1.516139507293701172e-02
1.517307758331298828e-02
1.518929004669189453e-02
1.516139507293701172e-02
1.516306400299072266e-02
1.513695716857910156e-02
1.516771316528320312e-02
1.517391204833984375e-02
1.519930362701416016e-02
1.518476009368896484e-02
1.523780822753906250e-02
1.516854763031005859e-02
1.515674591064453125e-02
1.519179344177246094e-02
1.505994796752929688e-02
1.502740383148193359e-02
1.496350765228271484e-02
1.489877700805664062e-02
1.483035087585449219e-02
1.477515697479248047e-02
1.461505889892578125e-02
1.450729370117187500e-02
1.453948020935058594e-02
1.446151733398437500e-02
1.436543464660644531e-02
1.420223712921142578e-02
1.418066024780273438e-02
1.416480541229248047e-02
1.408004760742187500e-02
1.407802104949951172e-02
1.401078701019287109e-02
1.400578022003173828e-02
1.403021812438964844e-02
1.398873329162597656e-02
1.393723487854003906e-02
1.391410827636718750e-02
1.387488842010498047e-02
1.389622688293457031e-02
1.390111446380615234e-02
1.387655735015869141e-02
1.390266418457031250e-02
1.394641399383544922e-02
1.387536525726318359e-02
1.384007930755615234e-02
1.377832889556884766e-02
1.375329494476318359e-02
1.366984844207763672e-02
1.364994049072265625e-02
1.359081268310546875e-02
1.353168487548828125e-02
1.345467567443847656e-02
1.336407661437988281e-02
1.335835456848144531e-02
1.325118541717529297e-02
1.325750350952148438e-02
1.321339607238769531e-02
1.323556900024414062e-02
1.324546337127685547e-02
1.324999332427978516e-02
1.325225830078125000e-02
1.326954364776611328e-02
1.323914527893066406e-02
1.321732997894287109e-02
1.325285434722900391e-02
1.323795318603515625e-02
1.325356960296630859e-02
1.327323913574218750e-02
1.327610015869140625e-02
1.330113410949707031e-02
1.332795619964599609e-02
1.331162452697753906e-02
1.328492164611816406e-02
1.324081420898437500e-02
1.322233676910400391e-02
1.316583156585693359e-02
1.314175128936767578e-02
1.309180259704589844e-02
1.303827762603759766e-02
1.308739185333251953e-02
1.301598548889160156e-02
1.302814483642578125e-02
1.292860507965087891e-02
1.293277740478515625e-02
1.290380954742431641e-02
1.284074783325195312e-02
1.287460327148437500e-02
1.282656192779541016e-02
1.281571388244628906e-02
1.280689239501953125e-02
1.283884048461914062e-02
1.279330253601074219e-02
1.278746128082275391e-02
1.278364658355712891e-02
1.279330253601074219e-02
1.275897026062011719e-02
1.272308826446533203e-02
1.278555393218994141e-02
1.275408267974853516e-02
1.269304752349853516e-02
1.266312599182128906e-02
1.260232925415039062e-02
1.254248619079589844e-02
1.247346401214599609e-02
1.243901252746582031e-02
1.238679885864257812e-02
1.229298114776611328e-02
1.220607757568359375e-02
1.213514804840087891e-02
1.209330558776855469e-02
1.198458671569824219e-02
1.191294193267822266e-02
1.190066337585449219e-02
1.180505752563476562e-02
1.173746585845947266e-02
1.168966293334960938e-02
1.167964935302734375e-02
1.158130168914794922e-02
1.152217388153076172e-02
1.149106025695800781e-02
1.144719123840332031e-02
1.140224933624267578e-02
1.134014129638671875e-02
1.128017902374267578e-02
1.126074790954589844e-02
1.122128963470458984e-02
1.114547252655029297e-02
1.119065284729003906e-02
1.115036010742187500e-02
1.104569435119628906e-02
1.103055477142333984e-02
1.094889640808105469e-02
1.089346408843994141e-02
1.083922386169433594e-02
1.075935363769531250e-02
1.071083545684814453e-02
1.067626476287841797e-02
1.061606407165527344e-02
1.055645942687988281e-02
1.058495044708251953e-02
1.059091091156005859e-02
1.059579849243164062e-02
1.061856746673583984e-02
1.063203811645507812e-02
1.062524318695068359e-02
1.067328453063964844e-02
1.064002513885498047e-02
1.062762737274169922e-02
1.064443588256835938e-02
1.061689853668212891e-02
1.057779788970947266e-02
1.056909561157226562e-02
1.057565212249755859e-02
1.051485538482666016e-02
1.051926612854003906e-02
1.048874855041503906e-02
1.046407222747802734e-02
1.045191287994384766e-02
1.039588451385498047e-02
1.036298274993896484e-02
1.030528545379638672e-02
1.031196117401123047e-02
1.020205020904541016e-02
1.017737388610839844e-02
1.015949249267578125e-02
1.007640361785888672e-02
1.002597808837890625e-02
9.980440139770507812e-03
9.967684745788574219e-03
9.928464889526367188e-03
9.884715080261230469e-03
9.845733642578125000e-03
9.843349456787109375e-03
9.774684906005859375e-03
9.760141372680664062e-03
9.705662727355957031e-03
9.638071060180664062e-03
9.587764739990234375e-03
9.544372558593750000e-03
9.515166282653808594e-03
9.466767311096191406e-03
9.354114532470703125e-03
9.289503097534179688e-03
9.257435798645019531e-03
9.169936180114746094e-03
9.112715721130371094e-03
9.028553962707519531e-03
8.962869644165039062e-03
8.871912956237792969e-03
8.794546127319335938e-03
8.696198463439941406e-03
8.592247962951660156e-03
8.548855781555175781e-03
8.455157279968261719e-03
8.399724960327148438e-03
8.255600929260253906e-03
8.177161216735839844e-03
8.123517036437988281e-03
8.105993270874023438e-03
8.056879043579101562e-03
7.914900779724121094e-03
7.879376411437988281e-03
7.807612419128417969e-03
7.741570472717285156e-03
7.682085037231445312e-03
7.598757743835449219e-03
7.526516914367675781e-03
7.455825805664062500e-03
7.425665855407714844e-03
7.266759872436523438e-03
7.193088531494140625e-03
7.124662399291992188e-03
7.051110267639160156e-03
6.972193717956542969e-03
6.856083869934082031e-03
6.805062294006347656e-03
6.748199462890625000e-03
6.721258163452148438e-03
6.605625152587890625e-03
6.579279899597167969e-03
6.521344184875488281e-03
6.487250328063964844e-03
6.415247917175292969e-03
6.333470344543457031e-03
6.344437599182128906e-03
6.260991096496582031e-03
6.245613098144531250e-03
6.295800209045410156e-03
6.234645843505859375e-03
6.219148635864257812e-03
6.240367889404296875e-03
6.273031234741210938e-03
6.272792816162109375e-03
6.284594535827636719e-03
6.251335144042968750e-03
6.223320960998535156e-03
6.218910217285156250e-03
6.209969520568847656e-03
6.160140037536621094e-03
6.113648414611816406e-03
6.116390228271484375e-03
6.099939346313476562e-03
6.070971488952636719e-03
6.036758422851562500e-03
6.005525588989257812e-03
5.985021591186523438e-03
5.975723266601562500e-03
5.962848663330078125e-03
5.920648574829101562e-03
5.862712860107421875e-03
5.793452262878417969e-03
5.658268928527832031e-03
5.528688430786132812e-03
5.597233772277832031e-03
5.552887916564941406e-03
5.478978157043457031e-03
5.435943603515625000e-03
5.354642868041992188e-03
5.317568778991699219e-03
5.257248878479003906e-03
5.217194557189941406e-03
5.139589309692382812e-03
5.128026008605957031e-03
5.070924758911132812e-03
5.001544952392578125e-03
4.977464675903320312e-03
4.927277565002441406e-03
4.821300506591796875e-03
4.751563072204589844e-03
4.677057266235351562e-03
4.616737365722656250e-03
4.592537879943847656e-03
4.492163658142089844e-03
4.424333572387695312e-03
4.388689994812011719e-03
4.290819168090820312e-03
4.249215126037597656e-03
4.172563552856445312e-03
4.054784774780273438e-03
3.908157348632812500e-03
3.888487815856933594e-03
3.855586051940917969e-03
3.748536109924316406e-03
3.746986389160156250e-03
3.663182258605957031e-03
3.574252128601074219e-03
3.514885902404785156e-03
3.480792045593261719e-03
3.430485725402832031e-03
3.391385078430175781e-03
3.360271453857421875e-03
3.322720527648925781e-03
3.262877464294433594e-03
3.194570541381835938e-03
3.137469291687011719e-03
3.118634223937988281e-03
3.102421760559082031e-03
3.044962882995605469e-03
2.983927726745605469e-03
2.919197082519531250e-03
2.917170524597167969e-03
2.853155136108398438e-03
2.850890159606933594e-03
2.788186073303222656e-03
2.709865570068359375e-03
2.751946449279785156e-03
2.586364746093750000e-03
2.484917640686035156e-03
2.466917037963867188e-03
2.425789833068847656e-03
2.414584159851074219e-03
2.377390861511230469e-03
2.353668212890625000e-03
2.375364303588867188e-03
2.387046813964843750e-03
2.389788627624511719e-03
2.337694168090820312e-03
2.291440963745117188e-03
2.345204353332519531e-03
2.295851707458496094e-03
2.292752265930175781e-03
2.361893653869628906e-03
2.289891242980957031e-03
2.318739891052246094e-03
2.305984497070312500e-03
2.291798591613769531e-03
2.242088317871093750e-03
2.204298973083496094e-03
2.171516418457031250e-03
2.150416374206542969e-03
2.185821533203125000e-03
2.175331115722656250e-03
2.170205116271972656e-03
2.155780792236328125e-03
2.067446708679199219e-03
1.982569694519042969e-03
1.969575881958007812e-03
1.991748809814453125e-03
1.967668533325195312e-03
1.940011978149414062e-03
1.963138580322265625e-03
1.911044120788574219e-03
1.898050308227539062e-03
1.888155937194824219e-03
1.845955848693847656e-03
1.823186874389648438e-03
1.791119575500488281e-03
1.773238182067871094e-03
1.746654510498046875e-03
1.769781112670898438e-03
1.704454421997070312e-03
1.665234565734863281e-03
1.695871353149414062e-03
1.704931259155273438e-03
1.684069633483886719e-03
1.609802246093750000e-03
1.622676849365234375e-03
1.608729362487792969e-03
1.565575599670410156e-03
1.569867134094238281e-03
1.502871513366699219e-03
1.507759094238281250e-03
1.391887664794921875e-03
1.297473907470703125e-03
1.318812370300292969e-03
1.268148422241210938e-03
1.255869865417480469e-03
1.221299171447753906e-03
1.222372055053710938e-03
1.190423965454101562e-03
1.166343688964843750e-03
1.159071922302246094e-03
1.169800758361816406e-03
1.112937927246093750e-03
1.035809516906738281e-03
1.021862030029296875e-03
9.410381317138671875e-04
8.888244628906250000e-04
8.155107498168945312e-04
7.692575454711914062e-04
7.554292678833007812e-04
7.870197296142578125e-04
7.387399673461914062e-04
6.589889526367187500e-04
6.783008575439453125e-04
6.359815597534179688e-04
6.047487258911132812e-04
5.887746810913085938e-04
6.331205368041992188e-04
7.053613662719726562e-04
5.915164947509765625e-04
5.155801773071289062e-04
5.111694335937500000e-04
4.841089248657226562e-04
4.072189331054687500e-04
3.156661987304687500e-04
2.872943878173828125e-04
2.764463424682617188e-04
2.638101577758789062e-04
2.518892288208007812e-04
2.552270889282226562e-04
2.628564834594726562e-04
2.937316894531250000e-04
2.589225769042968750e-04
7.593631744384765625e-05
-1.072883605957031250e-06
-2.384185791015625000e-06
5.960464477539062500e-06
2.706050872802734375e-05
-4.947185516357421875e-05
-9.417533874511718750e-06
2.980232238769531250e-06
-2.765655517578125000e-05
-3.814697265625000000e-06
-2.038478851318359375e-05
3.337860107421875000e-05
6.854534149169921875e-05
7.593631744384765625e-05
-1.603364944458007812e-04
-2.293586730957031250e-04
-2.793073654174804688e-04
-2.847909927368164062e-04
-2.515316009521484375e-04
-3.125667572021484375e-04
-2.958774566650390625e-04
-2.967119216918945312e-04
-2.626180648803710938e-04
-3.203153610229492188e-04
-3.352165222167968750e-04
-2.807378768920898438e-04
-2.998113632202148438e-04
-2.665519714355468750e-04
-4.523992538452148438e-04
-5.500316619873046875e-04
-5.247592926025390625e-04
-5.340576171875000000e-04
-5.769729614257812500e-04
-5.701780319213867188e-04
-5.644559860229492188e-04
-5.754232406616210938e-04
-5.306005477905273438e-04
-5.915164947509765625e-04
-6.291866302490234375e-04
-6.316900253295898438e-04
-5.469322204589843750e-04
-5.432367324829101562e-04
-7.323026657104492188e-04
-7.524490356445312500e-04
-7.655620574951171875e-04
-8.021593093872070312e-04
-8.277893066406250000e-04
-8.132457733154296875e-04
-7.848739624023437500e-04
-7.799863815307617188e-04
-8.279085159301757812e-04
-7.987022399902343750e-04
-7.907152175903320312e-04
-7.791519165039062500e-04
-7.729530334472656250e-04
-7.610321044921875000e-04
-9.720325469970703125e-04
-1.066207885742187500e-03
-1.000761985778808594e-03
-1.030206680297851562e-03
-9.866952896118164062e-04
-1.048207283020019531e-03
-1.018047332763671875e-03
-9.859800338745117188e-04
-9.818077087402343750e-04
-9.971857070922851562e-04
-9.665489196777343750e-04
-9.703636169433593750e-04
-1.001238822937011719e-03
-1.003861427307128906e-03
-1.211404800415039062e-03
-1.272439956665039062e-03
-1.205444335937500000e-03
-1.224994659423828125e-03
-1.207709312438964844e-03
-1.157999038696289062e-03
-1.191973686218261719e-03
-1.215457916259765625e-03
-1.176714897155761719e-03
-1.157045364379882812e-03
-1.217842102050781250e-03
-1.192092895507812500e-03
-1.200079917907714844e-03
-1.271963119506835938e-03
-1.432657241821289062e-03
-1.457810401916503906e-03
-1.434326171875000000e-03
-1.473307609558105469e-03
-1.451849937438964844e-03
-1.469492912292480469e-03
-1.484394073486328125e-03
-1.513481140136718750e-03
-1.515269279479980469e-03
-1.513242721557617188e-03
-1.474499702453613281e-03
-1.477241516113281250e-03
-1.483201980590820312e-03
-1.524806022644042969e-03
-1.728534698486328125e-03
-1.743674278259277344e-03
-1.701951026916503906e-03
-1.711487770080566406e-03
-1.717329025268554688e-03
-1.684546470642089844e-03
-1.723527908325195312e-03
-1.737117767333984375e-03
-1.683950424194335938e-03
-1.688957214355468750e-03
-1.724839210510253906e-03
-1.687884330749511719e-03
-1.648664474487304688e-03
-1.742124557495117188e-03
-2.143263816833496094e-03
-2.176284790039062500e-03
-2.149939537048339844e-03
-2.160310745239257812e-03
-2.124071121215820312e-03
-2.162575721740722656e-03
-2.102613449096679688e-03
-2.159357070922851562e-03
-2.142190933227539062e-03
-2.131819725036621094e-03
-2.167105674743652344e-03
-2.171158790588378906e-03
-2.117156982421875000e-03
-2.162694931030273438e-03
-2.351284027099609375e-03
-2.402305603027343750e-03
-2.367854118347167969e-03
-2.368569374084472656e-03
-2.374410629272460938e-03
-2.315044403076171875e-03
-2.297639846801757812e-03
-2.300739288330078125e-03
-2.328038215637207031e-03
-2.321958541870117188e-03
-2.274751663208007812e-03
-2.319216728210449219e-03
-2.267956733703613281e-03
-2.336978912353515625e-03
-2.536296844482421875e-03
-2.560019493103027344e-03
-2.539515495300292969e-03
-2.520442008972167969e-03
-2.548813819885253906e-03
-2.534389495849609375e-03
-2.506971359252929688e-03
-2.476334571838378906e-03
-2.479314804077148438e-03
-2.491474151611328125e-03
-2.491474151611328125e-03
-2.499818801879882812e-03
-2.502441406250000000e-03
-2.584338188171386719e-03
-2.715468406677246094e-03
-2.713441848754882812e-03
-2.687096595764160156e-03
-2.622485160827636719e-03
-2.647519111633300781e-03
-2.691864967346191406e-03
-2.646565437316894531e-03
-2.716898918151855469e-03
-2.664685249328613281e-03
-2.568602561950683594e-03
-2.618670463562011719e-03
-2.699255943298339844e-03
