0.000000000000000000e+00
0.000000000000000000e+00
0.000000000000000000e+00
0.000000000000000000e+00
0.000000000000000000e+00
0.000000000000000000e+00
0.000000000000000000e+00
0.000000000000000000e+00
0.000000000000000000e+00
0.000000000000000000e+00
0.000000000000000000e+00
0.000000000000000000e+00
0.000000000000000000e+00
0.000000000000000000e+00
0.000000000000000000e+00
0.000000000000000000e+00
0.000000000000000000e+00
0.000000000000000000e+00
0.000000000000000000e+00
0.000000000000000000e+00
0.000000000000000000e+00
0.000000000000000000e+00
0.000000000000000000e+00
0.000000000000000000e+00
0.000000000000000000e+00
0.000000000000000000e+00
0.000000000000000000e+00
0.000000000000000000e+00
0.000000000000000000e+00
0.000000000000000000e+00
0.000000000000000000e+00
0.000000000000000000e+00
0.000000000000000000e+00
0.000000000000000000e+00
0.000000000000000000e+00
0.000000000000000000e+00
0.000000000000000000e+00
0.000000000000000000e+00
0.000000000000000000e+00
0.000000000000000000e+00
0.000000000000000000e+00
0.000000000000000000e+00
0.000000000000000000e+00
0.000000000000000000e+00
0.000000000000000000e+00
0.000000000000000000e+00
0.000000000000000000e+00
0.000000000000000000e+00
0.000000000000000000e+00
0.000000000000000000e+00
0.000000000000000000e+00
0.000000000000000000e+00
0.000000000000000000e+00
0.000000000000000000e+00
0.000000000000000000e+00
0.000000000000000000e+00
0.000000000000000000e+00
0.000000000000000000e+00
0.000000000000000000e+00
0.000000000000000000e+00
0.000000000000000000e+00
0.000000000000000000e+00
0.000000000000000000e+00
0.000000000000000000e+00
0.000000000000000000e+00
0.000000000000000000e+00
0.000000000000000000e+00
0.000000000000000000e+00
0.000000000000000000e+00
0.000000000000000000e+00
0.000000000000000000e+00
0.000000000000000000e+00
0.000000000000000000e+00
0.000000000000000000e+00
0.000000000000000000e+00
0.000000000000000000e+00
0.000000000000000000e+00
0.000000000000000000e+00
0.000000000000000000e+00
0.000000000000000000e+00
0.000000000000000000e+00
0.000000000000000000e+00
0.000000000000000000e+00
0.000000000000000000e+00
0.000000000000000000e+00
0.000000000000000000e+00
0.000000000000000000e+00
0.000000000000000000e+00
0.000000000000000000e+00
0.000000000000000000e+00
0.000000000000000000e+00
0.000000000000000000e+00
0.000000000000000000e+00
0.000000000000000000e+00
0.000000000000000000e+00
0.000000000000000000e+00
0.000000000000000000e+00
0.000000000000000000e+00
0.000000000000000000e+00
0.000000000000000000e+00
0.000000000000000000e+00
0.000000000000000000e+00
0.000000000000000000e+00
0.000000000000000000e+00
0.000000000000000000e+00
0.000000000000000000e+00
0.000000000000000000e+00
0.000000000000000000e+00
0.000000000000000000e+00
0.000000000000000000e+00
0.000000000000000000e+00
0.000000000000000000e+00
0.000000000000000000e+00
0.000000000000000000e+00
0.000000000000000000e+00
0.000000000000000000e+00
0.000000000000000000e+00
0.000000000000000000e+00
0.000000000000000000e+00
0.000000000000000000e+00
0.000000000000000000e+00
0.000000000000000000e+00
0.000000000000000000e+00
0.000000000000000000e+00
0.000000000000000000e+00
0.000000000000000000e+00
0.000000000000000000e+00
0.000000000000000000e+00
0.000000000000000000e+00
0.000000000000000000e+00
0.000000000000000000e+00
0.000000000000000000e+00
0.000000000000000000e+00
0.000000000000000000e+00
0.000000000000000000e+00
0.000000000000000000e+00
0.000000000000000000e+00
0.000000000000000000e+00
0.000000000000000000e+00
0.000000000000000000e+00
0.000000000000000000e+00
0.000000000000000000e+00
0.000000000000000000e+00
0.000000000000000000e+00
0.000000000000000000e+00
0.000000000000000000e+00
0.000000000000000000e+00
0.000000000000000000e+00
0.000000000000000000e+00
0.000000000000000000e+00
0.000000000000000000e+00
0.000000000000000000e+00
0.000000000000000000e+00
0.000000000000000000e+00
0.000000000000000000e+00
0.000000000000000000e+00
0.000000000000000000e+00
0.000000000000000000e+00
0.000000000000000000e+00
0.000000000000000000e+00
0.000000000000000000e+00
0.000000000000000000e+00
0.000000000000000000e+00
0.000000000000000000e+00
0.000000000000000000e+00
0.000000000000000000e+00
0.000000000000000000e+00
0.000000000000000000e+00
0.000000000000000000e+00
0.000000000000000000e+00
0.000000000000000000e+00
0.000000000000000000e+00
0.000000000000000000e+00
0.000000000000000000e+00
0.000000000000000000e+00
0.000000000000000000e+00
0.000000000000000000e+00
0.000000000000000000e+00
0.000000000000000000e+00
0.000000000000000000e+00
0.000000000000000000e+00
0.000000000000000000e+00
0.000000000000000000e+00
0.000000000000000000e+00
0.000000000000000000e+00
0.000000000000000000e+00
0.000000000000000000e+00
0.000000000000000000e+00
0.000000000000000000e+00
0.000000000000000000e+00
0.000000000000000000e+00
0.000000000000000000e+00
0.000000000000000000e+00
0.000000000000000000e+00
0.000000000000000000e+00
0.000000000000000000e+00
0.000000000000000000e+00
0.000000000000000000e+00
0.000000000000000000e+00
0.000000000000000000e+00
0.000000000000000000e+00
0.000000000000000000e+00
0.000000000000000000e+00
0.000000000000000000e+00
0.000000000000000000e+00
0.000000000000000000e+00
0.000000000000000000e+00
0.000000000000000000e+00
0.000000000000000000e+00
0.000000000000000000e+00
0.000000000000000000e+00
0.000000000000000000e+00
0.000000000000000000e+00
0.000000000000000000e+00
0.000000000000000000e+00
0.000000000000000000e+00
0.000000000000000000e+00
0.000000000000000000e+00
0.000000000000000000e+00
0.000000000000000000e+00
0.000000000000000000e+00
0.000000000000000000e+00
0.000000000000000000e+00
0.000000000000000000e+00
0.000000000000000000e+00
0.000000000000000000e+00
0.000000000000000000e+00
0.000000000000000000e+00
0.000000000000000000e+00
0.000000000000000000e+00
0.000000000000000000e+00
0.000000000000000000e+00
0.000000000000000000e+00
0.000000000000000000e+00
0.000000000000000000e+00
0.000000000000000000e+00
0.000000000000000000e+00
0.000000000000000000e+00
0.000000000000000000e+00
0.000000000000000000e+00
0.000000000000000000e+00
0.000000000000000000e+00
0.000000000000000000e+00
0.000000000000000000e+00
0.000000000000000000e+00
0.000000000000000000e+00
0.000000000000000000e+00
0.000000000000000000e+00
0.000000000000000000e+00
0.000000000000000000e+00
0.000000000000000000e+00
0.000000000000000000e+00
0.000000000000000000e+00
0.000000000000000000e+00
0.000000000000000000e+00
0.000000000000000000e+00
1.192092895507812500e-07
-1.192092895507812500e-07
1.192092895507812500e-07
-1.192092895507812500e-07
0.000000000000000000e+00
9.536743164062500000e-07
2.503395080566406250e-06
5.960464477539062500e-07
7.152557373046875000e-07
2.145767211914062500e-06
1.668930053710937500e-06
-3.576278686523437500e-07
-5.960464477539062500e-07
1.192092895507812500e-07
-1.072883605957031250e-06
2.861022949218750000e-06
1.788139343261718750e-06
7.152557373046875000e-07
-2.861022949218750000e-06
2.264976501464843750e-06
8.583068847656250000e-06
3.218650817871093750e-06
-1.311302185058593750e-06
1.001358032226562500e-05
1.227855682373046875e-05
6.437301635742187500e-06
5.483627319335937500e-06
5.960464477539062500e-07
1.049041748046875000e-05
1.835823059082031250e-05
6.198883056640625000e-06
-1.072883605957031250e-06
-8.344650268554687500e-06
6.437301635742187500e-06
7.629394531250000000e-06
6.675720214843750000e-06
1.382827758789062500e-05
8.106231689453125000e-06
2.527236938476562500e-05
2.503395080566406250e-05
2.408027648925781250e-05
2.014636993408203125e-05
3.337860107421875000e-05
1.513957977294921875e-05
2.026557922363281250e-05
8.583068847656250000e-06
-3.695487976074218750e-06
2.062320709228515625e-05
7.629394531250000000e-06
1.549720764160156250e-06
1.573562622070312500e-05
2.253055572509765625e-05
2.062320709228515625e-05
4.506111145019531250e-05
4.482269287109375000e-05
4.410743713378906250e-06
3.576278686523437500e-06
2.527236938476562500e-05
1.811981201171875000e-05
2.837181091308593750e-05
1.192092895507812500e-05
4.184246063232421875e-05
4.518032073974609375e-05
3.373622894287109375e-05
4.518032073974609375e-05
2.384185791015625000e-05
1.454353332519531250e-05
9.179115295410156250e-06
2.503395080566406250e-05
3.886222839355468750e-05
-7.033348083496093750e-06
-3.576278686523437500e-06
1.120567321777343750e-05
1.120567321777343750e-05
-2.503395080566406250e-06
8.225440979003906250e-06
1.251697540283203125e-05
2.157688140869140625e-05
3.767013549804687500e-05
2.360343933105468750e-05
2.527236938476562500e-05
1.335144042968750000e-05
3.004074096679687500e-05
1.907348632812500000e-05
2.396106719970703125e-05
6.914138793945312500e-06
-2.384185791015625000e-06
-4.529953002929687500e-06
-2.837181091308593750e-05
-1.418590545654296875e-05
-2.348423004150390625e-05
-2.765655517578125000e-05
-2.980232238769531250e-05
-3.838539123535156250e-05
-2.193450927734375000e-05
-1.680850982666015625e-05
-5.936622619628906250e-05
-5.209445953369140625e-05
-6.723403930664062500e-05
-5.805492401123046875e-05
-4.994869232177734375e-05
-2.658367156982421875e-05
-8.463859558105468750e-06
-3.945827484130859375e-05
2.539157867431640625e-05
8.821487426757812500e-06
2.205371856689453125e-05
-1.084804534912109375e-05
-3.361701965332031250e-05
4.887580871582031250e-06
-5.960464477539062500e-06
-1.180171966552734375e-05
-2.014636993408203125e-05
-2.503395080566406250e-05
-1.418590545654296875e-05
-1.430511474609375000e-05
-1.072883605957031250e-06
-1.895427703857421875e-05
-2.670288085937500000e-05
-1.251697540283203125e-05
-2.622604370117187500e-05
-8.583068847656250000e-06
4.887580871582031250e-06
-2.956390380859375000e-05
-5.006790161132812500e-06
-2.086162567138671875e-05
-1.418590545654296875e-05
-7.998943328857421875e-05
-5.078315734863281250e-05
-2.956390380859375000e-05
-3.337860107421875000e-05
-5.042552947998046875e-05
-5.364418029785156250e-05
-3.981590270996093750e-05
-2.145767211914062500e-06
7.510185241699218750e-06
-3.087520599365234375e-05
-1.943111419677734375e-05
5.245208740234375000e-06
-1.108646392822265625e-05
-3.015995025634765625e-05
-2.396106719970703125e-05
-4.303455352783203125e-05
-3.802776336669921875e-05
1.764297485351562500e-05
1.800060272216796875e-05
-3.182888031005859375e-05
-1.692771911621093750e-05
-4.136562347412109375e-05
-5.233287811279296875e-05
-3.409385681152343750e-05
-3.504753112792968750e-05
-3.802776336669921875e-05
-1.847743988037109375e-05
-6.604194641113281250e-05
-7.486343383789062500e-05
-9.775161743164062500e-06
1.299381256103515625e-05
-1.680850982666015625e-05
-1.907348632812500000e-05
-1.883506774902343750e-05
-2.098083496093750000e-05
-2.837181091308593750e-05
1.657009124755859375e-05
2.717971801757812500e-05
4.351139068603515625e-05
6.723403930664062500e-05
5.185604095458984375e-05
1.037120819091796875e-05
1.394748687744140625e-05
1.692771911621093750e-05
5.137920379638671875e-05
8.463859558105468750e-05
3.147125244140625000e-05
1.478195190429687500e-05
7.152557373046875000e-07
-1.788139343261718750e-06
-1.192092895507812500e-06
3.278255462646484375e-05
3.540515899658203125e-05
3.814697265625000000e-05
3.767013549804687500e-05
4.541873931884765625e-05
7.021427154541015625e-05
9.059906005859375000e-06
1.287460327148437500e-05
3.671646118164062500e-05
7.593631744384765625e-05
2.586841583251953125e-05
3.778934478759765625e-05
-2.837181091308593750e-05
3.337860107421875000e-06
4.827976226806640625e-05
2.622604370117187500e-06
5.173683166503906250e-05
3.123283386230468750e-05
2.396106719970703125e-05
2.145767211914062500e-06
-1.788139343261718750e-05
-1.323223114013671875e-05
2.622604370117187500e-05
-1.823902130126953125e-05
-7.867813110351562500e-06
-1.919269561767578125e-05
-2.598762512207031250e-05
3.445148468017578125e-05
1.835823059082031250e-05
-1.823902130126953125e-05
4.327297210693359375e-05
3.385543823242187500e-05
5.781650543212890625e-05
-1.680850982666015625e-05
-3.731250762939453125e-05
-1.215934753417968750e-05
6.651878356933593750e-05
3.039836883544921875e-05
2.372264862060546875e-05
5.507469177246093750e-05
-5.102157592773437500e-05
8.070468902587890625e-05
1.013278961181640625e-05
2.336502075195312500e-05
5.900859832763671875e-05
1.120567321777343750e-05
-1.966953277587890625e-05
3.528594970703125000e-05
9.655952453613281250e-06
1.943111419677734375e-05
-9.536743164062500000e-06
-6.377696990966796875e-05
7.247924804687500000e-05
-2.384185791015625000e-07
5.602836608886718750e-06
-3.457069396972656250e-05
-4.923343658447265625e-05
4.732608795166015625e-05
9.179115295410156250e-06
-7.867813110351562500e-06
6.866455078125000000e-05
-5.161762237548828125e-05
-1.382827758789062500e-05
-4.339218139648437500e-05
-3.623962402343750000e-05
5.149841308593750000e-05
9.298324584960937500e-06
-5.245208740234375000e-05
-5.877017974853515625e-05
-6.520748138427734375e-05
3.647804260253906250e-05
4.351139068603515625e-05
-6.568431854248046875e-05
5.042552947998046875e-05
-7.140636444091796875e-05
7.152557373046875000e-06
-7.510185241699218750e-05
-5.304813385009765625e-05
3.349781036376953125e-05
2.038478851318359375e-05
1.263618469238281250e-05
-3.170967102050781250e-05
-3.123283386230468750e-05
-3.314018249511718750e-05
1.847743988037109375e-05
-7.820129394531250000e-05
1.207590103149414062e-04
1.633167266845703125e-05
-3.302097320556640625e-05
-1.347064971923828125e-05
-3.743171691894531250e-05
1.609325408935546875e-04
5.090236663818359375e-05
1.549720764160156250e-06
5.662441253662109375e-05
4.923343658447265625e-05
1.703500747680664062e-04
1.353025436401367188e-04
1.053810119628906250e-04
1.182556152343750000e-04
6.353855133056640625e-05
3.647804260253906250e-05
3.612041473388671875e-05
4.398822784423828125e-05
7.820129394531250000e-05
6.246566772460937500e-05
-8.571147918701171875e-05
7.939338684082031250e-05
-3.063678741455078125e-05
7.855892181396484375e-05
-3.409385681152343750e-05
-3.814697265625000000e-06
5.960464477539062500e-05
1.740455627441406250e-05
3.099441528320312500e-06
-3.290176391601562500e-05
2.419948577880859375e-05
-1.457929611206054688e-04
-1.975297927856445312e-04
-2.629756927490234375e-04
2.014636993408203125e-05
-8.618831634521484375e-05
-1.430511474609375000e-05
-2.552270889282226562e-04
-8.893013000488281250e-05
1.311302185058593750e-06
-5.590915679931640625e-05
-1.333951950073242188e-04
-1.835823059082031250e-04
-3.612041473388671875e-05
-1.596212387084960938e-04
-2.924203872680664062e-04
-3.031492233276367188e-04
-1.753568649291992188e-04
-1.713037490844726562e-04
-2.768039703369140625e-04
-3.628730773925781250e-04
-1.032352447509765625e-04
-1.294612884521484375e-04
-1.438856124877929688e-04
-1.786947250366210938e-04
1.018166542053222656e-03
1.138210296630859375e-03
1.112341880798339844e-03
-4.720687866210937500e-05
5.563497543334960938e-04
1.699447631835937500e-03
1.654624938964843750e-03
1.178026199340820312e-03
-1.950263977050781250e-04
5.924701690673828125e-04
4.526376724243164062e-04
6.293058395385742188e-04
-1.633167266845703125e-04
-1.451969146728515625e-04
-1.593828201293945312e-04
-1.931190490722656250e-04
-2.954006195068359375e-04
-1.972913742065429688e-04
6.437301635742187500e-05
-1.869201660156250000e-04
-1.569986343383789062e-04
-3.650188446044921875e-04
4.470348358154296875e-05
-8.952617645263671875e-05
-1.765489578247070312e-04
-3.021955490112304688e-04
-9.036064147949218750e-05
-5.006790161132812500e-05
-1.907348632812500000e-05
-2.571344375610351562e-04
-1.254081726074218750e-04
-1.291036605834960938e-04
-2.329349517822265625e-04
-1.242160797119140625e-04
-1.024007797241210938e-04
1.118183135986328125e-04
1.041889190673828125e-04
-5.412101745605468750e-05
1.537799835205078125e-05
-8.821487426757812500e-06
-1.347064971923828125e-05
1.286268234252929688e-04
-3.814697265625000000e-05
9.560585021972656250e-05
-1.466274261474609375e-04
-2.515316009521484375e-05
-5.960464477539062500e-07
3.576278686523437500e-05
-9.047985076904296875e-05
3.933906555175781250e-06
1.208782196044921875e-04
1.932382583618164062e-04
1.872777938842773438e-04
4.839897155761718750e-05
3.143548965454101562e-04
3.246068954467773438e-04
3.437995910644531250e-04
1.267194747924804688e-04
4.863739013671875000e-05
2.098083496093750000e-04
2.316236495971679688e-04
1.665353775024414062e-04
1.468658447265625000e-04
1.050233840942382812e-04
2.676248550415039062e-04
3.778934478759765625e-05
1.341104507446289062e-04
6.830692291259765625e-05
6.496906280517578125e-05
1.310110092163085938e-04
1.119375228881835938e-04
1.178979873657226562e-04
4.339218139648437500e-05
9.405612945556640625e-05
3.337860107421875000e-05
1.571178436279296875e-04
-3.409385681152343750e-05
1.485347747802734375e-04
7.700920104980468750e-05
1.208782196044921875e-04
1.507997512817382812e-04
1.393556594848632812e-04
1.796483993530273438e-04
1.484155654907226562e-04
1.600980758666992188e-04
9.453296661376953125e-05
1.555681228637695312e-04
9.453296661376953125e-05
2.979040145874023438e-04
2.814531326293945312e-04
3.119707107543945312e-04
1.097917556762695312e-04
-1.330375671386718750e-04
-2.527236938476562500e-05
1.033544540405273438e-04
6.854534149169921875e-05
-4.518032073974609375e-05
-2.145767211914062500e-04
-1.099109649658203125e-04
8.583068847656250000e-05
-1.025199890136718750e-05
-4.756450653076171875e-05
-1.622438430786132812e-04
-2.539157867431640625e-05
2.264976501464843750e-05
-9.751319885253906250e-05
-1.540184020996093750e-04
9.763240814208984375e-05
1.353025436401367188e-04
1.579523086547851562e-04
-1.752376556396484375e-05
-1.161098480224609375e-04
1.574754714965820312e-04
2.446174621582031250e-04
3.209114074707031250e-04
2.816915512084960938e-04
2.145767211914062500e-04
2.603530883789062500e-04
2.406835556030273438e-04
2.642869949340820312e-04
3.485679626464843750e-04
3.612041473388671875e-04
3.011226654052734375e-04
2.371072769165039062e-04
1.876354217529296875e-04
2.307891845703125000e-04
1.997947692871093750e-04
1.242160797119140625e-04
2.429485321044921875e-04
3.695487976074218750e-05
9.405612945556640625e-05
7.522106170654296875e-05
1.255273818969726562e-04
2.715587615966796875e-04
1.835823059082031250e-04
2.037286758422851562e-04
1.920461654663085938e-04
1.918077468872070312e-04
1.066923141479492188e-04
7.236003875732421875e-05
7.128715515136718750e-05
2.397298812866210938e-04
2.089738845825195312e-04
1.177787780761718750e-04
1.163482666015625000e-04
1.823902130126953125e-05
1.078844070434570312e-04
6.806850433349609375e-05
9.047985076904296875e-05
2.108812332153320312e-04
1.258850097656250000e-04
1.202821731567382812e-04
1.372098922729492188e-04
1.127719879150390625e-04
1.969337463378906250e-04
9.012222290039062500e-05
9.262561798095703125e-05
1.113414764404296875e-04
1.946687698364257812e-04
1.165866851806640625e-04
7.331371307373046875e-05
8.535385131835937500e-05
1.406669616699218750e-04
1.488924026489257812e-04
7.700920104980468750e-05
1.405477523803710938e-04
1.304149627685546875e-04
1.822710037231445312e-04
9.799003601074218750e-05
6.031990051269531250e-05
1.058578491210937500e-04
1.049041748046875000e-04
1.190900802612304688e-04
1.493692398071289062e-04
8.797645568847656250e-05
8.523464202880859375e-05
1.350641250610351562e-04
1.376867294311523438e-04
1.870393753051757812e-04
1.548528671264648438e-04
1.225471496582031250e-04
1.409053802490234375e-04
1.063346862792968750e-04
1.167058944702148438e-04
8.547306060791015625e-05
1.194477081298828125e-04
1.262426376342773438e-04
1.053810119628906250e-04
9.584426879882812500e-05
7.236003875732421875e-05
7.247924804687500000e-05
5.793571472167968750e-05
9.167194366455078125e-05
7.617473602294921875e-05
9.715557098388671875e-05
7.152557373046875000e-05
1.136064529418945312e-04
1.231431961059570312e-04
1.007318496704101562e-04
1.537799835205078125e-04
1.273155212402343750e-04
1.443624496459960938e-04
1.577138900756835938e-04
1.522302627563476562e-04
1.250505447387695312e-04
9.822845458984375000e-05
1.633167266845703125e-04
1.912117004394531250e-04
1.649856567382812500e-04
1.565217971801757812e-04
1.598596572875976562e-04
1.653432846069335938e-04
1.482963562011718750e-04
1.590251922607421875e-04
1.538991928100585938e-04
1.189708709716796875e-04
1.417398452758789062e-04
1.089572906494140625e-04
1.207590103149414062e-04
1.269578933715820312e-04
1.189708709716796875e-04
1.358985900878906250e-04
8.463859558105468750e-05
8.571147918701171875e-05
2.682209014892578125e-05
1.180171966552734375e-05
2.634525299072265625e-05
5.114078521728515625e-05
5.722045898437500000e-05
3.635883331298828125e-05
3.445148468017578125e-05
4.398822784423828125e-05
5.602836608886718750e-05
4.851818084716796875e-05
3.683567047119140625e-05
3.981590270996093750e-05
1.716613769531250000e-05
5.006790161132812500e-05
7.200241088867187500e-05
5.149841308593750000e-05
6.413459777832031250e-05
4.851818084716796875e-05
6.532669067382812500e-05
6.592273712158203125e-05
5.722045898437500000e-06
3.802776336669921875e-05
4.243850708007812500e-05
4.041194915771484375e-05
4.017353057861328125e-05
-1.382827758789062500e-05
3.981590270996093750e-05
7.629394531250000000e-06
2.360343933105468750e-05
1.680850982666015625e-05
-3.397464752197265625e-05
5.722045898437500000e-06
3.254413604736328125e-05
4.100799560546875000e-05
5.924701690673828125e-05
2.884864807128906250e-05
3.218650817871093750e-05
3.826618194580078125e-05
1.215934753417968750e-05
1.311302185058593750e-05
8.702278137207031250e-06
2.253055572509765625e-05
5.269050598144531250e-05
7.402896881103515625e-05
5.602836608886718750e-06
2.241134643554687500e-05
6.437301635742187500e-06
-1.192092895507812500e-05
5.686283111572265625e-05
7.224082946777343750e-05
2.121925354003906250e-05
2.861022949218750000e-05
4.827976226806640625e-05
8.547306060791015625e-05
7.653236389160156250e-05
5.888938903808593750e-05
6.437301635742187500e-05
5.173683166503906250e-05
7.045269012451171875e-05
4.613399505615234375e-05
4.732608795166015625e-05
4.541873931884765625e-05
1.239776611328125000e-05
5.447864532470703125e-05
2.503395080566406250e-05
2.801418304443359375e-05
7.545948028564453125e-05
3.051757812500000000e-05
2.038478851318359375e-05
5.280971527099609375e-05
2.133846282958984375e-05
-2.658367156982421875e-05
-2.908706665039062500e-05
-2.026557922363281250e-06
3.433227539062500000e-05
-2.145767211914062500e-05
-2.157688140869140625e-05
5.841255187988281250e-06
-2.801418304443359375e-05
-1.549720764160156250e-05
-3.504753112792968750e-05
-3.921985626220703125e-05
-1.549720764160156250e-05
-4.851818084716796875e-05
-3.767013549804687500e-05
-4.959106445312500000e-05
-1.132488250732421875e-05
-3.826618194580078125e-05
-1.478195190429687500e-05
-2.443790435791015625e-05
-4.446506500244140625e-05
-3.719329833984375000e-05
-7.212162017822265625e-05
5.722045898437500000e-05
3.683567047119140625e-05
-2.253055572509765625e-05
1.847743988037109375e-05
-4.613399505615234375e-05
1.549720764160156250e-05
7.176399230957031250e-05
-6.198883056640625000e-06
3.337860107421875000e-06
1.549720764160156250e-05
1.978874206542968750e-05
-1.931190490722656250e-05
7.021427154541015625e-05
7.140636444091796875e-05
7.069110870361328125e-05
3.218650817871093750e-05
1.513957977294921875e-05
3.612041473388671875e-05
3.457069396972656250e-05
1.966953277587890625e-05
-3.349781036376953125e-05
2.312660217285156250e-05
4.708766937255859375e-05
4.196166992187500000e-05
-1.025199890136718750e-05
-1.609325408935546875e-05
-2.193450927734375000e-05
1.394748687744140625e-05
-1.788139343261718750e-06
2.193450927734375000e-05
-1.931190490722656250e-05
8.344650268554687500e-07
-1.263618469238281250e-05
3.767013549804687500e-05
-1.657009124755859375e-05
-3.576278686523437500e-07
2.002716064453125000e-05
1.120567321777343750e-05
-5.304813385009765625e-05
-2.253055572509765625e-05
-1.573562622070312500e-05
-2.455711364746093750e-05
1.549720764160156250e-06
-8.940696716308593750e-06
4.541873931884765625e-05
6.556510925292968750e-06
3.719329833984375000e-05
4.220008850097656250e-05
-1.156330108642578125e-05
3.242492675781250000e-05
2.562999725341796875e-05
1.549720764160156250e-06
2.980232238769531250e-06
-2.515316009521484375e-05
5.364418029785156250e-06
-2.980232238769531250e-06
2.098083496093750000e-05
1.955032348632812500e-05
-4.637241363525390625e-05
-6.377696990966796875e-05
-2.551078796386718750e-05
-1.454353332519531250e-05
-3.457069396972656250e-06
2.670288085937500000e-05
-2.455711364746093750e-05
2.133846282958984375e-05
2.157688140869140625e-05
7.152557373046875000e-07
1.597404479980468750e-05
-2.670288085937500000e-05
-1.680850982666015625e-05
-4.053115844726562500e-05
2.849102020263671875e-05
1.847743988037109375e-05
1.525878906250000000e-05
1.275539398193359375e-05
-7.152557373046875000e-07
-1.001358032226562500e-05
-2.527236938476562500e-05
-3.337860107421875000e-05
-7.033348083496093750e-06
-2.110004425048828125e-05
-8.881092071533203125e-05
-2.884864807128906250e-05
-2.300739288330078125e-05
-1.549720764160156250e-06
-4.470348358154296875e-05
-9.417533874511718750e-06
2.455711364746093750e-05
3.576278686523437500e-07
-4.172325134277343750e-06
-1.633167266845703125e-05
1.037120819091796875e-05
-4.768371582031250000e-07
7.152557373046875000e-06
5.841255187988281250e-06
-1.788139343261718750e-06
9.417533874511718750e-06
-2.264976501464843750e-06
1.084804534912109375e-05
2.408027648925781250e-05
9.536743164062500000e-06
1.001358032226562500e-05
4.470348358154296875e-05
2.467632293701171875e-05
-1.215934753417968750e-05
8.225440979003906250e-06
-1.585483551025390625e-05
-4.041194915771484375e-05
-5.543231964111328125e-05
-3.254413604736328125e-05
-3.445148468017578125e-05
-2.789497375488281250e-05
-4.136562347412109375e-05
-4.780292510986328125e-05
-7.271766662597656250e-06
6.198883056640625000e-06
7.748603820800781250e-06
-1.358985900878906250e-05
1.037120819091796875e-05
5.960464477539062500e-05
5.710124969482421875e-05
1.955032348632812500e-05
1.084804534912109375e-05
8.702278137207031250e-06
2.598762512207031250e-05
1.406669616699218750e-05
8.738040924072265625e-05
4.279613494873046875e-05
4.792213439941406250e-05
5.030632019042968750e-05
3.278255462646484375e-05
4.875659942626953125e-05
2.288818359375000000e-05
5.149841308593750000e-05
5.686283111572265625e-05
5.352497100830078125e-05
9.417533874511718750e-06
1.764297485351562500e-05
-1.931190490722656250e-05
-5.125999450683593750e-06
9.417533874511718750e-06
4.923343658447265625e-05
1.049041748046875000e-05
1.609325408935546875e-05
3.814697265625000000e-06
4.255771636962890625e-05
7.510185241699218750e-06
-1.633167266845703125e-05
2.920627593994140625e-05
1.680850982666015625e-05
2.765655517578125000e-05
-5.829334259033203125e-05
-2.849102020263671875e-05
-3.170967102050781250e-05
-2.598762512207031250e-05
-9.775161743164062500e-06
2.229213714599609375e-05
-9.894371032714843750e-06
-1.394748687744140625e-05
1.502037048339843750e-05
7.748603820800781250e-06
9.536743164062500000e-07
-1.525878906250000000e-05
2.121925354003906250e-05
1.978874206542968750e-05
-3.874301910400390625e-05
-4.410743713378906250e-06
6.675720214843750000e-06
-9.775161743164062500e-06
-1.788139343261718750e-06
3.862380981445312500e-05
3.576278686523437500e-07
3.886222839355468750e-05
-1.657009124755859375e-05
-4.863739013671875000e-05
4.494190216064453125e-05
-1.108646392822265625e-05
-1.728534698486328125e-05
3.576278686523437500e-06
-2.074241638183593750e-05
4.887580871582031250e-06
2.729892730712890625e-05
2.753734588623046875e-05
2.145767211914062500e-06
5.841255187988281250e-06
7.033348083496093750e-06
1.502037048339843750e-05
2.777576446533203125e-05
1.168251037597656250e-05
1.919269561767578125e-05
2.837181091308593750e-05
2.920627593994140625e-05
1.716613769531250000e-05
1.883506774902343750e-05
5.292892456054687500e-05
9.655952453613281250e-06
-1.096725463867187500e-05
2.193450927734375000e-05
1.382827758789062500e-05
-1.084804534912109375e-05
-3.361701965332031250e-05
-1.120567321777343750e-05
2.729892730712890625e-05
-1.072883605957031250e-06
3.707408905029296875e-05
2.837181091308593750e-05
-4.649162292480468750e-06
-1.060962677001953125e-05
3.063678741455078125e-05
3.933906555175781250e-06
-2.014636993408203125e-05
9.536743164062500000e-06
-1.776218414306640625e-05
4.172325134277343750e-06
-2.872943878173828125e-05
1.025199890136718750e-05
-2.050399780273437500e-05
-2.491474151611328125e-05
-5.006790161132812500e-05
-5.865097045898437500e-05
-1.680850982666015625e-05
-1.680850982666015625e-05
-1.704692840576171875e-05
-2.872943878173828125e-05
-1.049041748046875000e-05
-1.561641693115234375e-05
-3.254413604736328125e-05
-5.090236663818359375e-05
-1.943111419677734375e-05
-3.123283386230468750e-05
-4.744529724121093750e-05
-3.695487976074218750e-05
-2.276897430419921875e-05
-2.861022949218750000e-06
8.583068847656250000e-06
5.364418029785156250e-06
8.702278137207031250e-06
-6.532669067382812500e-05
-2.741813659667968750e-05
-2.121925354003906250e-05
1.668930053710937500e-06
-9.655952453613281250e-06
-2.944469451904296875e-05
-3.278255462646484375e-05
1.549720764160156250e-05
2.062320709228515625e-05
4.374980926513671875e-05
-8.583068847656250000e-06
-1.096725463867187500e-05
1.704692840576171875e-05
-7.271766662597656250e-06
-1.192092895507812500e-07
3.385543823242187500e-05
1.314878463745117188e-04
1.292228698730468750e-04
1.344680786132812500e-04
7.438659667968750000e-05
8.964538574218750000e-05
8.666515350341796875e-05
6.532669067382812500e-05
1.003742218017578125e-04
1.457929611206054688e-04
1.111030578613281250e-04
1.217126846313476562e-04
1.500844955444335938e-04
7.963180541992187500e-05
1.556873321533203125e-04
6.937980651855468750e-05
0.000000000000000000e+00
-1.657009124755859375e-05
-2.694129943847656250e-05
-1.144409179687500000e-05
-4.649162292480468750e-06
3.576278686523437500e-07
1.430511474609375000e-06
-4.291534423828125000e-06
-2.384185791015625000e-07
-4.255771636962890625e-05
8.702278137207031250e-06
-2.646446228027343750e-05
-3.218650817871093750e-06
2.896785736083984375e-05
-7.987022399902343750e-06
1.358985900878906250e-05
-1.239776611328125000e-05
2.384185791015625000e-07
1.287460327148437500e-05
1.358985900878906250e-05
-3.623962402343750000e-05
2.443790435791015625e-05
2.467632293701171875e-05
-1.406669616699218750e-05
1.251697540283203125e-05
1.418590545654296875e-05
-2.038478851318359375e-05
-2.884864807128906250e-05
8.106231689453125000e-06
5.602836608886718750e-06
-1.835823059082031250e-05
-8.583068847656250000e-06
1.966953277587890625e-05
-1.430511474609375000e-06
-4.768371582031250000e-07
-7.510185241699218750e-06
-2.360343933105468750e-05
-1.919269561767578125e-05
2.133846282958984375e-05
3.039836883544921875e-05
-4.112720489501953125e-05
-2.014636993408203125e-05
9.894371032714843750e-06
-6.186962127685546875e-05
-5.877017974853515625e-05
-1.752376556396484375e-05
-4.601478576660156250e-05
-4.887580871582031250e-05
-2.670288085937500000e-05
-5.400180816650390625e-05
-8.344650268554687500e-05
-6.628036499023437500e-05
-5.722045898437500000e-05
-1.394748687744140625e-05
1.299381256103515625e-05
-3.314018249511718750e-05
-4.124641418457031250e-05
3.099441528320312500e-06
6.198883056640625000e-06
-4.291534423828125000e-06
-1.239776611328125000e-05
3.457069396972656250e-06
4.529953002929687500e-06
-5.984306335449218750e-05
-2.551078796386718750e-05
-5.602836608886718750e-06
-5.483627319335937500e-06
1.788139343261718750e-06
8.106231689453125000e-06
3.600120544433593750e-05
2.169609069824218750e-05
2.026557922363281250e-05
2.634525299072265625e-05
2.920627593994140625e-05
-1.215934753417968750e-05
-3.349781036376953125e-05
-1.192092895507812500e-05
2.241134643554687500e-05
-1.192092895507812500e-07
-7.390975952148437500e-06
-2.384185791015625000e-07
4.124641418457031250e-05
-1.013278961181640625e-05
-7.987022399902343750e-06
-6.675720214843750000e-06
-2.610683441162109375e-05
-2.384185791015625000e-06
2.717971801757812500e-05
-3.576278686523437500e-06
-2.884864807128906250e-05
1.132488250732421875e-05
5.960464477539062500e-06
2.825260162353515625e-05
9.894371032714843750e-06
-3.778934478759765625e-05
-1.299381256103515625e-05
1.978874206542968750e-05
1.180171966552734375e-05
2.038478851318359375e-05
-8.344650268554687500e-07
3.099441528320312500e-06
2.241134643554687500e-05
1.621246337890625000e-05
2.288818359375000000e-05
-8.106231689453125000e-06
2.694129943847656250e-05
-4.649162292480468750e-06
-4.291534423828125000e-05
2.896785736083984375e-05
4.887580871582031250e-05
1.275539398193359375e-05
-6.437301635742187500e-06
1.478195190429687500e-05
8.821487426757812500e-06
-1.287460327148437500e-05
-2.312660217285156250e-05
-3.719329833984375000e-05
-4.291534423828125000e-06
1.013278961181640625e-05
2.455711364746093750e-05
-3.147125244140625000e-05
-4.267692565917968750e-05
1.251697540283203125e-05
3.039836883544921875e-05
2.825260162353515625e-05
-8.940696716308593750e-06
-5.245208740234375000e-06
-2.503395080566406250e-05
-3.099441528320312500e-05
-2.384185791015625000e-07
8.583068847656250000e-06
-1.966953277587890625e-05
-2.741813659667968750e-05
-8.583068847656250000e-06
-1.299381256103515625e-05
1.609325408935546875e-05
-5.960464477539062500e-07
-2.670288085937500000e-05
-1.704692840576171875e-05
-2.384185791015625000e-06
5.602836608886718750e-06
-4.529953002929687500e-06
2.980232238769531250e-06
-2.145767211914062500e-06
4.887580871582031250e-06
-3.576278686523437500e-06
-9.894371032714843750e-06
-5.662441253662109375e-05
-7.712841033935546875e-05
-1.204013824462890625e-05
-2.682209014892578125e-05
-8.106231689453125000e-06
-3.039836883544921875e-05
-2.849102020263671875e-05
-2.360343933105468750e-05
-1.645088195800781250e-05
8.225440979003906250e-06
-1.049041748046875000e-05
-3.063678741455078125e-05
-2.443790435791015625e-05
-1.394748687744140625e-05
-1.299381256103515625e-05
2.467632293701171875e-05
-3.218650817871093750e-06
3.242492675781250000e-05
1.943111419677734375e-05
-1.227855682373046875e-05
-6.318092346191406250e-06
-3.933906555175781250e-06
-1.192092895507812500e-07
1.609325408935546875e-05
6.484985351562500000e-05
1.072883605957031250e-06
-7.987022399902343750e-06
-3.695487976074218750e-06
-7.748603820800781250e-06
1.132488250732421875e-05
3.278255462646484375e-05
1.955032348632812500e-05
-5.769729614257812500e-05
-3.433227539062500000e-05
2.264976501464843750e-05
2.539157867431640625e-05
-2.086162567138671875e-05
-2.050399780273437500e-05
9.536743164062500000e-07
4.351139068603515625e-05
-5.245208740234375000e-06
-3.063678741455078125e-05
-5.245208740234375000e-06
2.026557922363281250e-05
-8.940696716308593750e-06
1.573562622070312500e-05
2.026557922363281250e-05
3.957748413085937500e-05
1.597404479980468750e-05
-5.364418029785156250e-06
-1.835823059082031250e-05
-8.940696716308593750e-06
-7.069110870361328125e-05
-5.006790161132812500e-05
-8.344650268554687500e-06
-2.229213714599609375e-05
1.311302185058593750e-05
-1.943111419677734375e-05
-3.337860107421875000e-05
-1.192092895507812500e-06
2.300739288330078125e-05
3.206729888916015625e-05
-1.192092895507812500e-06
-4.780292510986328125e-05
-3.063678741455078125e-05
-1.204013824462890625e-05
1.001358032226562500e-05
-1.478195190429687500e-05
-1.645088195800781250e-05
1.764297485351562500e-05
-1.907348632812500000e-06
1.132488250732421875e-05
-1.001358032226562500e-05
3.707408905029296875e-05
2.121925354003906250e-05
-4.148483276367187500e-05
-1.311302185058593750e-06
3.123283386230468750e-05
2.038478851318359375e-05
-4.649162292480468750e-06
1.442432403564453125e-05
1.418590545654296875e-05
4.684925079345703125e-05
-1.466274261474609375e-05
-3.039836883544921875e-05
4.470348358154296875e-05
-5.364418029785156250e-06
6.079673767089843750e-06
1.251697540283203125e-05
2.038478851318359375e-05
2.312660217285156250e-05
2.861022949218750000e-05
3.111362457275390625e-05
-1.239776611328125000e-05
-2.598762512207031250e-05
-7.748603820800781250e-06
7.629394531250000000e-06
-1.049041748046875000e-05
-9.775161743164062500e-06
3.814697265625000000e-06
6.437301635742187500e-06
4.649162292480468750e-06
1.370906829833984375e-05
-1.144409179687500000e-05
3.015995025634765625e-05
2.372264862060546875e-05
-1.919269561767578125e-05
1.430511474609375000e-06
-2.861022949218750000e-06
-3.218650817871093750e-06
3.039836883544921875e-05
1.394748687744140625e-05
-1.883506774902343750e-05
-6.079673767089843750e-06
-6.079673767089843750e-06
-2.396106719970703125e-05
-3.480911254882812500e-05
2.920627593994140625e-05
-1.788139343261718750e-05
-1.537799835205078125e-05
-7.987022399902343750e-06
1.096725463867187500e-05
-1.728534698486328125e-05
-1.084804534912109375e-05
-1.835823059082031250e-05
-2.014636993408203125e-05
1.311302185058593750e-06
-4.339218139648437500e-05
-2.360343933105468750e-05
-1.800060272216796875e-05
-2.110004425048828125e-05
3.099441528320312500e-06
-6.794929504394531250e-05
-3.516674041748046875e-05
-2.467632293701171875e-05
-1.096725463867187500e-05
-2.038478851318359375e-05
3.799200057983398438e-04
4.541873931884765625e-04
4.897117614746093750e-04
1.146793365478515625e-04
1.645088195800781250e-04
5.502700805664062500e-04
4.724264144897460938e-04
3.706216812133789062e-04
-3.337860107421875000e-05
1.984834671020507812e-04
1.593828201293945312e-04
1.471042633056640625e-04
2.503395080566406250e-05
-2.527236938476562500e-05
3.576278686523437500e-07
-7.152557373046875000e-05
2.145767211914062500e-06
-8.106231689453125000e-06
6.794929504394531250e-06
1.955032348632812500e-05
2.157688140869140625e-05
-2.503395080566406250e-05
-3.325939178466796875e-05
-1.323223114013671875e-05
-8.225440979003906250e-06
2.896785736083984375e-05
-2.634525299072265625e-05
-3.159046173095703125e-05
-1.049041748046875000e-05
-4.065036773681640625e-05
-2.264976501464843750e-05
-1.192092895507812500e-07
-2.527236938476562500e-05
-2.062320709228515625e-05
-2.455711364746093750e-05
-3.397464752197265625e-05
-5.340576171875000000e-05
-6.127357482910156250e-05
-6.556510925292968750e-05
-2.455711364746093750e-05
-6.937980651855468750e-05
-9.894371032714843750e-06
-1.192092895507812500e-07
-1.823902130126953125e-05
-1.466274261474609375e-05
1.192092895507812500e-06
-2.110004425048828125e-05
-4.947185516357421875e-05
-1.597404479980468750e-05
1.394748687744140625e-05
6.318092346191406250e-06
-1.490116119384765625e-05
-3.135204315185546875e-05
-2.801418304443359375e-05
3.731250762939453125e-05
1.060962677001953125e-05
7.629394531250000000e-06
-6.914138793945312500e-06
3.468990325927734375e-05
5.960464477539062500e-06
-2.706050872802734375e-05
-2.419948577880859375e-05
1.847743988037109375e-05
-3.778934478759765625e-05
-3.123283386230468750e-05
-1.239776611328125000e-05
-1.156330108642578125e-05
-1.168251037597656250e-05
-5.495548248291015625e-05
1.895427703857421875e-05
-1.549720764160156250e-06
7.510185241699218750e-06
-4.184246063232421875e-05
-9.536743164062500000e-07
-3.743171691894531250e-05
-9.775161743164062500e-06
-1.919269561767578125e-05
-3.385543823242187500e-05
-4.410743713378906250e-06
-1.907348632812500000e-05
-1.013278961181640625e-05
-2.801418304443359375e-05
2.956390380859375000e-05
-3.063678741455078125e-05
-3.528594970703125000e-05
-2.193450927734375000e-05
-3.361701965332031250e-05
-3.695487976074218750e-06
-4.172325134277343750e-06
-2.491474151611328125e-05
-2.110004425048828125e-05
-4.196166992187500000e-05
-3.027915954589843750e-05
-3.087520599365234375e-05
-1.108646392822265625e-05
-2.443790435791015625e-05
-2.229213714599609375e-05
-4.529953002929687500e-06
-2.396106719970703125e-05
-3.910064697265625000e-05
-4.243850708007812500e-05
-3.397464752197265625e-05
-1.907348632812500000e-05
-7.903575897216796875e-05
-4.911422729492187500e-05
-4.792213439941406250e-05
-6.914138793945312500e-05
-2.384185791015625000e-05
-6.151199340820312500e-05
-5.483627319335937500e-06
2.205371856689453125e-05
-5.006790161132812500e-06
-1.740455627441406250e-05
-2.074241638183593750e-05
-4.553794860839843750e-05
-2.610683441162109375e-05
-4.768371582031250000e-05
-4.911422729492187500e-05
-2.169609069824218750e-05
-6.616115570068359375e-05
-4.827976226806640625e-05
-2.372264862060546875e-05
-3.397464752197265625e-05
-1.859664916992187500e-05
-4.756450653076171875e-05
-3.385543823242187500e-05
-1.621246337890625000e-05
-3.314018249511718750e-05
7.629394531250000000e-06
-1.049041748046875000e-05
1.966953277587890625e-05
1.859664916992187500e-05
4.172325134277343750e-05
1.132488250732421875e-05
-5.483627319335937500e-06
1.001358032226562500e-05
-2.539157867431640625e-05
-1.108646392822265625e-05
-2.670288085937500000e-05
3.576278686523437500e-07
-1.907348632812500000e-05
2.300739288330078125e-05
-5.173683166503906250e-05
-3.743171691894531250e-05
7.510185241699218750e-06
-5.102157592773437500e-05
-2.205371856689453125e-05
2.145767211914062500e-06
3.457069396972656250e-06
6.318092346191406250e-06
-2.515316009521484375e-05
-1.025199890136718750e-05
-7.152557373046875000e-07
-4.076957702636718750e-05
-2.360343933105468750e-05
-7.069110870361328125e-05
-5.960464477539062500e-06
2.396106719970703125e-05
3.898143768310546875e-05
4.076957702636718750e-05
7.748603820800781250e-06
4.518032073974609375e-05
1.192092895507812500e-06
7.784366607666015625e-05
5.626678466796875000e-05
9.179115295410156250e-06
2.396106719970703125e-05
3.051757812500000000e-05
-5.722045898437500000e-06
-1.204013824462890625e-05
-8.702278137207031250e-06
7.748603820800781250e-06
4.529953002929687500e-05
1.823902130126953125e-05
6.961822509765625000e-05
1.335144042968750000e-05
1.573562622070312500e-05
1.692771911621093750e-05
4.255771636962890625e-05
4.279613494873046875e-05
3.457069396972656250e-05
4.422664642333984375e-05
-5.841255187988281250e-06
-2.110004425048828125e-05
-2.264976501464843750e-06
-1.418590545654296875e-05
-2.801418304443359375e-05
-2.849102020263671875e-05
-5.292892456054687500e-05
2.026557922363281250e-06
-5.960464477539062500e-05
-2.264976501464843750e-05
1.049041748046875000e-05
-5.960464477539062500e-07
3.671646118164062500e-05
-3.087520599365234375e-05
-1.370906829833984375e-05
-5.602836608886718750e-06
-3.814697265625000000e-05
-1.668930053710937500e-06
-2.694129943847656250e-05
-2.968311309814453125e-05
-9.179115295410156250e-06
-5.757808685302734375e-05
-1.847743988037109375e-05
-4.374980926513671875e-05
-7.402896881103515625e-05
-1.609325408935546875e-05
-4.148483276367187500e-05
-3.230571746826171875e-05
-1.776218414306640625e-05
-1.120567321777343750e-05
1.668930053710937500e-06
-3.099441528320312500e-05
-4.172325134277343750e-06
-6.318092346191406250e-06
-1.478195190429687500e-05
-3.600120544433593750e-05
-1.072883605957031250e-05
-1.025199890136718750e-05
-1.668930053710937500e-05
-2.622604370117187500e-06
-9.894371032714843750e-06
-1.895427703857421875e-05
-3.933906555175781250e-06
1.668930053710937500e-06
-3.528594970703125000e-05
6.794929504394531250e-06
-6.115436553955078125e-05
-1.120567321777343750e-05
1.180171966552734375e-05
-1.895427703857421875e-05
-5.602836608886718750e-06
-2.574920654296875000e-05
-4.673004150390625000e-05
-1.263618469238281250e-05
2.503395080566406250e-05
-1.096725463867187500e-05
-2.825260162353515625e-05
-1.668930053710937500e-05
-1.263618469238281250e-05
-1.156330108642578125e-05
2.264976501464843750e-06
-1.561641693115234375e-05
-9.894371032714843750e-06
-6.008148193359375000e-05
-1.740455627441406250e-05
-3.015995025634765625e-05
-1.537799835205078125e-05
-3.218650817871093750e-06
6.556510925292968750e-06
2.837181091308593750e-05
-3.683567047119140625e-05
-9.775161743164062500e-06
6.556510925292968750e-06
-1.525878906250000000e-05
-6.377696990966796875e-05
-5.745887756347656250e-05
1.728534698486328125e-05
1.645088195800781250e-05
-2.145767211914062500e-06
-7.152557373046875000e-07
-1.943111419677734375e-05
-5.364418029785156250e-06
-5.066394805908203125e-05
-4.279613494873046875e-05
-2.276897430419921875e-05
-5.662441253662109375e-05
-2.658367156982421875e-05
-2.551078796386718750e-05
-3.254413604736328125e-05
-1.776218414306640625e-05
-2.884864807128906250e-05
-4.398822784423828125e-05
-1.227855682373046875e-05
3.814697265625000000e-06
-2.884864807128906250e-05
6.079673767089843750e-06
-3.361701965332031250e-05
-2.849102020263671875e-05
2.384185791015625000e-06
-4.291534423828125000e-06
-3.457069396972656250e-05
-4.684925079345703125e-05
-4.482269287109375000e-05
-5.304813385009765625e-05
-5.090236663818359375e-05
-6.616115570068359375e-05
-2.229213714599609375e-05
-4.613399505615234375e-05
-8.702278137207031250e-06
2.241134643554687500e-05
-4.601478576660156250e-05
-5.197525024414062500e-05
-3.755092620849609375e-05
-6.771087646484375000e-05
-7.224082946777343750e-05
-6.520748138427734375e-05
-6.663799285888671875e-05
-7.104873657226562500e-05
-5.710124969482421875e-05
-1.047849655151367188e-04
-9.441375732421875000e-05
-4.732608795166015625e-05
-7.152557373046875000e-05
-5.090236663818359375e-05
-6.675720214843750000e-05
-7.164478302001953125e-05
-5.018711090087890625e-05
-6.639957427978515625e-05
-5.400180816650390625e-05
-6.330013275146484375e-05
-1.026391983032226562e-04
-1.149177551269531250e-04
-1.485347747802734375e-04
-1.010894775390625000e-04
-1.167058944702148438e-04
-6.508827209472656250e-05
-6.604194641113281250e-05
-8.308887481689453125e-05
-5.590915679931640625e-05
-1.016855239868164062e-04
-8.010864257812500000e-05
-7.283687591552734375e-05
-8.416175842285156250e-05
-8.034706115722656250e-05
-6.890296936035156250e-05
-7.998943328857421875e-05
-5.221366882324218750e-05
-8.821487426757812500e-05
-8.654594421386718750e-05
-9.012222290039062500e-05
-8.428096771240234375e-05
-6.735324859619140625e-05
-7.939338684082031250e-05
-1.099109649658203125e-04
-8.881092071533203125e-05
-7.152557373046875000e-05
-6.389617919921875000e-05
-5.352497100830078125e-05
-5.185604095458984375e-05
-3.814697265625000000e-05
-1.692771911621093750e-05
-2.551078796386718750e-05
7.867813110351562500e-06
-4.577636718750000000e-05
-2.050399780273437500e-05
-1.800060272216796875e-05
-3.194808959960937500e-05
-4.839897155761718750e-05
-8.940696716308593750e-05
-5.722045898437500000e-05
-6.067752838134765625e-05
4.768371582031250000e-06
-4.112720489501953125e-05
-5.722045898437500000e-05
-5.757808685302734375e-05
-5.424022674560546875e-05
-4.732608795166015625e-05
-4.470348358154296875e-05
-1.585483551025390625e-05
-6.103515625000000000e-05
-3.731250762939453125e-05
-4.220008850097656250e-05
-3.659725189208984375e-05
-6.008148193359375000e-05
-3.457069396972656250e-05
-2.729892730712890625e-05
-5.316734313964843750e-05
-7.319450378417968750e-05
-8.964538574218750000e-05
-4.482269287109375000e-05
-1.000165939331054688e-04
-6.520748138427734375e-05
-3.731250762939453125e-05
-4.756450653076171875e-05
-5.817413330078125000e-05
-5.578994750976562500e-05
-9.179115295410156250e-05
-5.221366882324218750e-05
-3.361701965332031250e-05
-6.401538848876953125e-05
-4.625320434570312500e-05
-4.577636718750000000e-05
-3.540515899658203125e-05
-4.303455352783203125e-05
-4.494190216064453125e-05
-6.258487701416015625e-05
-4.160404205322265625e-05
-8.106231689453125000e-05
-7.295608520507812500e-05
-7.545948028564453125e-05
-7.557868957519531250e-05
-4.959106445312500000e-05
-7.069110870361328125e-05
-4.553794860839843750e-05
-8.833408355712890625e-05
-5.209445953369140625e-05
-8.273124694824218750e-05
-4.589557647705078125e-05
-3.731250762939453125e-05
-5.102157592773437500e-05
-5.793571472167968750e-05
-8.559226989746093750e-05
-7.569789886474609375e-05
-4.601478576660156250e-05
-3.933906555175781250e-06
-4.017353057861328125e-05
-2.980232238769531250e-05
-2.622604370117187500e-05
-2.312660217285156250e-05
-4.720687866210937500e-05
-1.037120819091796875e-05
-2.503395080566406250e-05
-5.054473876953125000e-05
-4.100799560546875000e-05
-2.038478851318359375e-05
-2.145767211914062500e-06
-2.610683441162109375e-05
-2.467632293701171875e-05
-1.084804534912109375e-05
-1.871585845947265625e-05
-3.230571746826171875e-05
-3.099441528320312500e-05
-4.410743713378906250e-05
-8.499622344970703125e-05
-1.163482666015625000e-04
-1.147985458374023438e-04
-1.156330108642578125e-04
-8.630752563476562500e-05
-1.170635223388671875e-04
-1.343488693237304688e-04
-8.559226989746093750e-05
-9.191036224365234375e-05
-9.942054748535156250e-05
-8.988380432128906250e-05
-6.496906280517578125e-05
-1.015663146972656250e-04
-1.107454299926757812e-04
-8.177757263183593750e-05
-1.027584075927734375e-04
-1.134872436523437500e-04
-1.008510589599609375e-04
-7.331371307373046875e-05
-6.043910980224609375e-05
-8.285045623779296875e-05
-7.164478302001953125e-05
-9.846687316894531250e-05
-1.078844070434570312e-04
-1.013278961181640625e-04
-8.916854858398437500e-05
-1.215934753417968750e-04
-1.617670059204101562e-04
-1.121759414672851562e-04
-9.489059448242187500e-05
-1.230239868164062500e-04
-1.350641250610351562e-04
-9.858608245849609375e-05
-1.128911972045898438e-04
-1.258850097656250000e-04
-5.853176116943359375e-05
-3.373622894287109375e-05
-1.004934310913085938e-04
-8.726119995117187500e-05
-1.032352447509765625e-04
-7.855892181396484375e-05
-7.843971252441406250e-05
-1.131296157836914062e-04
-1.239776611328125000e-04
-9.930133819580078125e-05
-9.953975677490234375e-05
-9.572505950927734375e-05
-9.942054748535156250e-05
-1.126527786254882812e-04
-1.348257064819335938e-04
-1.254081726074218750e-04
-9.179115295410156250e-05
-6.937980651855468750e-05
-9.787082672119140625e-05
-6.783008575439453125e-05
-3.814697265625000000e-05
-7.677078247070312500e-05
-9.429454803466796875e-05
-1.162290573120117188e-04
-7.247924804687500000e-05
-1.412630081176757812e-04
-9.822845458984375000e-05
-1.324415206909179688e-04
-1.133680343627929688e-04
-1.397132873535156250e-04
-1.188516616821289062e-04
-9.131431579589843750e-05
-1.178979873657226562e-04
-7.450580596923828125e-05
-3.015995025634765625e-05
-8.821487426757812500e-06
2.622604370117187500e-06
1.192092895507812500e-07
-8.416175842285156250e-05
-1.250505447387695312e-04
-1.205205917358398438e-04
-1.363754272460937500e-04
-1.139640808105468750e-04
-9.977817535400390625e-05
-1.134872436523437500e-04
-1.271963119506835938e-04
-1.220703125000000000e-04
-1.138448715209960938e-04
-1.065731048583984375e-04
-1.212358474731445312e-04
-1.351833343505859375e-04
-1.037120819091796875e-04
-1.194477081298828125e-04
-8.285045623779296875e-05
-2.765655517578125000e-05
-1.149177551269531250e-04
-1.467466354370117188e-04
-1.080036163330078125e-04
-6.008148193359375000e-05
-8.475780487060546875e-05
-1.164674758911132812e-04
-9.620189666748046875e-05
-1.081228256225585938e-04
-1.362562179565429688e-04
-1.186132431030273438e-04
-1.486539840698242188e-04
-1.484155654907226562e-04
-1.617670059204101562e-04
-9.703636169433593750e-05
-1.206398010253906250e-04
-1.074075698852539062e-04
-9.191036224365234375e-05
-9.405612945556640625e-05
-4.255771636962890625e-05
-1.131296157836914062e-04
-1.105070114135742188e-04
-9.000301361083984375e-05
-8.594989776611328125e-05
-1.232624053955078125e-04
-1.019239425659179688e-04
-1.403093338012695312e-04
-1.195669174194335938e-04
-7.808208465576171875e-05
-1.562833786010742188e-04
-9.799003601074218750e-05
-7.927417755126953125e-05
-1.264810562133789062e-04
-1.085996627807617188e-04
-1.467466354370117188e-04
-1.277923583984375000e-04
-1.341104507446289062e-04
-8.368492126464843750e-05
-1.033544540405273438e-04
-8.988380432128906250e-05
-9.751319885253906250e-05
-9.930133819580078125e-05
-7.748603820800781250e-05
-8.893013000488281250e-05
-9.644031524658203125e-05
-1.239776611328125000e-04
-9.715557098388671875e-05
-1.069307327270507812e-04
-9.655952453613281250e-05
-1.246929168701171875e-04
-1.000165939331054688e-04
-7.688999176025390625e-05
-7.951259613037109375e-05
-1.382827758789062500e-05
-2.574920654296875000e-05
1.013278961181640625e-05
-1.037120819091796875e-05
6.794929504394531250e-06
1.406669616699218750e-05
1.025199890136718750e-05
-4.792213439941406250e-05
-8.678436279296875000e-05
-1.128911972045898438e-04
-1.050233840942382812e-04
-5.984306335449218750e-05
-1.012086868286132812e-04
-1.065731048583984375e-04
-8.773803710937500000e-05
-9.238719940185546875e-05
-8.106231689453125000e-05
-4.339218139648437500e-05
-5.984306335449218750e-05
-8.213520050048828125e-05
-8.678436279296875000e-05
-1.087188720703125000e-04
-8.845329284667968750e-05
-1.217126846313476562e-04
-8.940696716308593750e-05
-6.854534149169921875e-05
-8.678436279296875000e-05
-1.043081283569335938e-04
-8.213520050048828125e-05
-8.678436279296875000e-05
-9.071826934814453125e-05
-5.304813385009765625e-05
-7.843971252441406250e-05
-8.261203765869140625e-05
-8.785724639892578125e-05
-8.690357208251953125e-05
-1.221895217895507812e-04
-8.273124694824218750e-05
-1.099109649658203125e-04
-7.486343383789062500e-05
-8.153915405273437500e-05
-8.606910705566406250e-05
-6.270408630371093750e-05
-8.940696716308593750e-05
-9.489059448242187500e-05
-1.144409179687500000e-04
-1.225471496582031250e-04
-1.039505004882812500e-04
-1.041889190673828125e-04
-1.014471054077148438e-04
-9.894371032714843750e-05
-7.259845733642578125e-05
-8.511543273925781250e-05
-6.079673767089843750e-05
-6.139278411865234375e-05
-7.283687591552734375e-05
-8.332729339599609375e-05
-6.437301635742187500e-05
-4.351139068603515625e-05
-6.937980651855468750e-05
-6.568431854248046875e-05
-5.030632019042968750e-05
-4.982948303222656250e-05
-7.832050323486328125e-05
-6.437301635742187500e-05
-5.829334259033203125e-05
-8.678436279296875000e-05
-9.977817535400390625e-05
-2.956390380859375000e-05
-4.816055297851562500e-05
-4.637241363525390625e-05
-7.975101470947265625e-05
-7.534027099609375000e-05
-7.927417755126953125e-05
-9.119510650634765625e-05
-6.151199340820312500e-05
-8.785724639892578125e-05
-8.940696716308593750e-05
-1.004934310913085938e-04
-7.188320159912109375e-05
-5.710124969482421875e-05
-5.316734313964843750e-05
-4.291534423828125000e-05
-3.564357757568359375e-05
-5.245208740234375000e-05
-4.315376281738281250e-05
-5.972385406494140625e-05
-5.388259887695312500e-05
-4.827976226806640625e-05
-1.176595687866210938e-04
-7.474422454833984375e-05
-6.759166717529296875e-05
-8.916854858398437500e-05
-7.390975952148437500e-05
-5.602836608886718750e-05
-7.355213165283203125e-05
-4.696846008300781250e-05
-3.194808959960937500e-05
-3.671646118164062500e-05
1.287460327148437500e-05
-3.767013549804687500e-05
-3.325939178466796875e-05
-1.895427703857421875e-05
-1.263618469238281250e-05
-2.646446228027343750e-05
-2.729892730712890625e-05
-5.471706390380859375e-05
-5.960464477539062500e-07
-1.931190490722656250e-05
-4.923343658447265625e-05
-3.409385681152343750e-05
-2.694129943847656250e-05
-4.589557647705078125e-05
-2.503395080566406250e-06
-2.264976501464843750e-05
-7.164478302001953125e-05
-1.335144042968750000e-05
-2.074241638183593750e-05
-7.987022399902343750e-06
-4.112720489501953125e-05
-1.311302185058593750e-05
-2.825260162353515625e-05
-4.589557647705078125e-05
-4.196166992187500000e-05
-4.267692565917968750e-05
-5.841255187988281250e-06
7.987022399902343750e-06
-3.826618194580078125e-05
-4.780292510986328125e-05
-3.981590270996093750e-05
1.192092895507812500e-07
-2.777576446533203125e-05
-4.553794860839843750e-05
-4.792213439941406250e-05
-6.937980651855468750e-05
-8.463859558105468750e-06
2.562999725341796875e-05
1.144409179687500000e-05
-4.374980926513671875e-05
7.152557373046875000e-07
-6.902217864990234375e-05
-5.590915679931640625e-05
-7.224082946777343750e-05
-4.446506500244140625e-05
-2.682209014892578125e-05
1.239776611328125000e-05
-6.794929504394531250e-06
-2.384185791015625000e-06
-4.363059997558593750e-05
-4.494190216064453125e-05
1.311302185058593750e-05
-3.921985626220703125e-05
8.344650268554687500e-06
-3.755092620849609375e-05
-1.406669616699218750e-05
-1.394748687744140625e-05
-1.728534698486328125e-05
-5.793571472167968750e-05
-8.344650268554687500e-06
-2.658367156982421875e-05
-2.586841583251953125e-05
-2.515316009521484375e-05
-2.205371856689453125e-05
-3.039836883544921875e-05
-1.740455627441406250e-05
3.933906555175781250e-06
-2.574920654296875000e-05
1.788139343261718750e-05
3.004074096679687500e-05
-1.788139343261718750e-05
-2.431869506835937500e-05
-5.447864532470703125e-05
-4.124641418457031250e-05
-2.551078796386718750e-05
-3.933906555175781250e-05
-2.121925354003906250e-05
-5.114078521728515625e-05
-8.106231689453125000e-05
-2.431869506835937500e-05
-3.910064697265625000e-05
-2.372264862060546875e-05
-4.255771636962890625e-05
-3.790855407714843750e-05
-1.692771911621093750e-05
-4.625320434570312500e-05
2.396106719970703125e-05
-6.783008575439453125e-05
-3.111362457275390625e-05
-3.790855407714843750e-05
-5.376338958740234375e-05
2.861022949218750000e-06
-9.179115295410156250e-06
-3.695487976074218750e-06
8.821487426757812500e-06
-8.463859558105468750e-05
-2.920627593994140625e-05
1.871585845947265625e-05
-2.038478851318359375e-05
-1.823902130126953125e-05
3.576278686523437500e-07
-1.132488250732421875e-05
-4.601478576660156250e-05
-2.896785736083984375e-05
-3.647804260253906250e-05
-4.529953002929687500e-05
-3.707408905029296875e-05
-7.033348083496093750e-06
-3.731250762939453125e-05
-4.172325134277343750e-06
-3.051757812500000000e-05
-6.759166717529296875e-05
-4.017353057861328125e-05
-5.722045898437500000e-05
-6.282329559326171875e-05
2.360343933105468750e-05
-1.776218414306640625e-05
-1.549720764160156250e-06
-1.227855682373046875e-05
5.960464477539062500e-07
-9.417533874511718750e-06
-2.455711364746093750e-05
-2.980232238769531250e-05
-5.209445953369140625e-05
-8.010864257812500000e-05
-9.894371032714843750e-05
-5.114078521728515625e-05
-8.785724639892578125e-05
-1.584291458129882812e-04
-1.674890518188476562e-04
-1.714229583740234375e-04
-1.717805862426757812e-04
-1.655817031860351562e-04
-1.344680786132812500e-04
-8.153915405273437500e-05
-1.149177551269531250e-04
-7.224082946777343750e-05
-4.363059997558593750e-05
-1.800060272216796875e-05
-3.933906555175781250e-05
-6.294250488281250000e-05
-1.113414764404296875e-04
-7.092952728271484375e-05
-8.523464202880859375e-05
-1.165866851806640625e-04
-1.735687255859375000e-04
-2.018213272094726562e-04
-1.484155654907226562e-04
-1.207590103149414062e-04
-8.487701416015625000e-05
1.299381256103515625e-04
5.177259445190429688e-04
5.589723587036132812e-04
6.287097930908203125e-04
7.151365280151367188e-04
7.116794586181640625e-04
7.145404815673828125e-04
6.885528564453125000e-04
7.499456405639648438e-04
7.712841033935546875e-04
7.516145706176757812e-04
6.641149520874023438e-04
6.898641586303710938e-04
7.768869400024414062e-04
8.555650711059570312e-04
8.884668350219726562e-04
1.101136207580566406e-03
1.672387123107910156e-03
1.978397369384765625e-03
2.051234245300292969e-03
2.113938331604003906e-03
2.218961715698242188e-03
2.292275428771972656e-03
2.256631851196289062e-03
2.212405204772949219e-03
2.338290214538574219e-03
2.364754676818847656e-03
2.292871475219726562e-03
2.224802970886230469e-03
2.273797988891601562e-03
2.389430999755859375e-03
2.505064010620117188e-03
2.656698226928710938e-03
3.122210502624511719e-03
3.640770912170410156e-03
3.842830657958984375e-03
3.934979438781738281e-03
3.998756408691406250e-03
4.065990447998046875e-03
4.038214683532714844e-03
3.946065902709960938e-03
3.996372222900390625e-03
4.074573516845703125e-03
4.006385803222656250e-03
3.839492797851562500e-03
3.777027130126953125e-03
3.877520561218261719e-03
3.998517990112304688e-03
4.039645195007324219e-03
4.733085632324218750e-03
5.372166633605957031e-03
5.725026130676269531e-03
5.476713180541992188e-03
5.518674850463867188e-03
5.883097648620605469e-03
5.892872810363769531e-03
5.624890327453613281e-03
5.103826522827148438e-03
5.315780639648437500e-03
5.369067192077636719e-03
5.252718925476074219e-03
4.944562911987304688e-03
4.904031753540039062e-03
4.948496818542480469e-03
5.012154579162597656e-03
5.095124244689941406e-03
5.553245544433593750e-03
6.041646003723144531e-03
6.192326545715332031e-03
6.213545799255371094e-03
6.199598312377929688e-03
6.241798400878906250e-03
6.065607070922851562e-03
5.926609039306640625e-03
5.921959877014160156e-03
5.860447883605957031e-03
5.886912345886230469e-03
5.749106407165527344e-03
5.650401115417480469e-03
5.644559860229492188e-03
5.737185478210449219e-03
5.770444869995117188e-03
6.035327911376953125e-03
6.582379341125488281e-03
6.861805915832519531e-03
6.928443908691406250e-03
6.934404373168945312e-03
6.961226463317871094e-03
6.848454475402832031e-03
6.745338439941406250e-03
6.621360778808593750e-03
6.657242774963378906e-03
6.700158119201660156e-03
6.587386131286621094e-03
6.510376930236816406e-03
6.486296653747558594e-03
6.549835205078125000e-03
6.650805473327636719e-03
6.705880165100097656e-03
7.108807563781738281e-03
7.413625717163085938e-03
7.578372955322265625e-03
7.589221000671386719e-03
7.578492164611816406e-03
7.592678070068359375e-03
7.471323013305664062e-03
7.429957389831542969e-03
7.422804832458496094e-03
7.447957992553710938e-03
7.407665252685546875e-03
7.255792617797851562e-03
7.285118103027343750e-03
7.331728935241699219e-03
7.344484329223632812e-03
7.448792457580566406e-03
7.764577865600585938e-03
8.192062377929687500e-03
8.406639099121093750e-03
8.464097976684570312e-03
8.434176445007324219e-03
8.519291877746582031e-03
8.392095565795898438e-03
8.344531059265136719e-03
8.349776268005371094e-03
8.328199386596679688e-03
8.350014686584472656e-03
8.295536041259765625e-03
8.229374885559082031e-03
8.243322372436523438e-03
8.279204368591308594e-03
8.272886276245117188e-03
8.493304252624511719e-03
8.930206298828125000e-03
9.168267250061035156e-03
9.309053421020507812e-03
9.353995323181152344e-03
9.347558021545410156e-03
9.330868721008300781e-03
9.254336357116699219e-03
9.176492691040039062e-03
9.215354919433593750e-03
9.211182594299316406e-03
9.148597717285156250e-03
9.036540985107421875e-03
9.014010429382324219e-03
9.002685546875000000e-03
9.067893028259277344e-03
9.148120880126953125e-03
9.430289268493652344e-03
9.790897369384765625e-03
9.920001029968261719e-03
9.992837905883789062e-03
9.991168975830078125e-03
9.931206703186035156e-03
9.904384613037109375e-03
9.822607040405273438e-03
9.792804718017578125e-03
9.815692901611328125e-03
9.845018386840820312e-03
9.770154953002929688e-03
9.708046913146972656e-03
9.637832641601562500e-03
9.685039520263671875e-03
9.850859642028808594e-03
1.005256175994873047e-02
1.052451133728027344e-02
1.076495647430419922e-02
1.079130172729492188e-02
1.079213619232177734e-02
1.074850559234619141e-02
1.070976257324218750e-02
1.070404052734375000e-02
1.070773601531982422e-02
1.075661182403564453e-02
1.074469089508056641e-02
1.065778732299804688e-02
1.056408882141113281e-02
1.051998138427734375e-02
1.046991348266601562e-02
1.053786277770996094e-02
1.073658466339111328e-02
1.124572753906250000e-02
1.157331466674804688e-02
1.167917251586914062e-02
1.173913478851318359e-02
1.167392730712890625e-02
1.158428192138671875e-02
1.157212257385253906e-02
1.154625415802001953e-02
1.161253452301025391e-02
1.160323619842529297e-02
1.156020164489746094e-02
1.149737834930419922e-02
1.141619682312011719e-02
1.136684417724609375e-02
1.136839389801025391e-02
1.152813434600830078e-02
1.175296306610107422e-02
1.204109191894531250e-02
1.220870018005371094e-02
1.226663589477539062e-02
1.222813129425048828e-02
1.215541362762451172e-02
1.205027103424072266e-02
1.204252243041992188e-02
1.206624507904052734e-02
1.201665401458740234e-02
1.201307773590087891e-02
1.196765899658203125e-02
1.185965538024902344e-02
1.180636882781982422e-02
1.183319091796875000e-02
1.187431812286376953e-02
1.202249526977539062e-02
1.229071617126464844e-02
1.236498355865478516e-02
1.236224174499511719e-02
1.237046718597412109e-02
1.232385635375976562e-02
1.221036911010742188e-02
1.221942901611328125e-02
1.215600967407226562e-02
1.213169097900390625e-02
1.210904121398925781e-02
1.203155517578125000e-02
1.193130016326904297e-02
1.184856891632080078e-02
1.178491115570068359e-02
1.183390617370605469e-02
1.195681095123291016e-02
1.205825805664062500e-02
1.228678226470947266e-02
1.233053207397460938e-02
1.233267784118652344e-02
1.225721836090087891e-02
1.217389106750488281e-02
1.213777065277099609e-02
1.210212707519531250e-02
1.209473609924316406e-02
1.209962368011474609e-02
1.208329200744628906e-02
1.200437545776367188e-02
1.192545890808105469e-02
1.186692714691162109e-02
1.187336444854736328e-02
1.195478439331054688e-02
1.207649707794189453e-02
1.225674152374267578e-02
1.232671737670898438e-02
1.228857040405273438e-02
1.223814487457275391e-02
1.212632656097412109e-02
1.208984851837158203e-02
1.208424568176269531e-02
1.206946372985839844e-02
1.208043098449707031e-02
1.203024387359619141e-02
1.200103759765625000e-02
1.188993453979492188e-02
1.182460784912109375e-02
1.175010204315185547e-02
1.177048683166503906e-02
1.174509525299072266e-02
1.179981231689453125e-02
1.180040836334228516e-02
1.176548004150390625e-02
1.175236701965332031e-02
1.164209842681884766e-02
1.166021823883056641e-02
1.158392429351806641e-02
1.158285140991210938e-02
1.154363155364990234e-02
1.152551174163818359e-02
1.148474216461181641e-02
1.133894920349121094e-02
1.131021976470947266e-02
1.127731800079345703e-02
1.133143901824951172e-02
1.136016845703125000e-02
1.142168045043945312e-02
1.146531105041503906e-02
1.143634319305419922e-02
1.147627830505371094e-02
1.137030124664306641e-02
1.142477989196777344e-02
1.144206523895263672e-02
1.137399673461914062e-02
1.145088672637939453e-02
1.139819622039794922e-02
1.135194301605224609e-02
1.129245758056640625e-02
1.125872135162353516e-02
1.127517223358154297e-02
1.126754283905029297e-02
1.129007339477539062e-02
1.131665706634521484e-02
1.133716106414794922e-02
1.129615306854248047e-02
1.125848293304443359e-02
1.126408576965332031e-02
1.125228404998779297e-02
1.122105121612548828e-02
1.118981838226318359e-02
1.117730140686035156e-02
1.111316680908203125e-02
1.106512546539306641e-02
1.105380058288574219e-02
1.107847690582275391e-02
1.117622852325439453e-02
1.119458675384521484e-02
1.121079921722412109e-02
1.109850406646728516e-02
1.111567020416259766e-02
1.119828224182128906e-02
1.115751266479492188e-02
1.111006736755371094e-02
1.108241081237792969e-02
1.107764244079589844e-02
1.100468635559082031e-02
1.098167896270751953e-02
1.089787483215332031e-02
1.089656352996826172e-02
1.085662841796875000e-02
1.083624362945556641e-02
1.085329055786132812e-02
1.085758209228515625e-02
1.085722446441650391e-02
1.084935665130615234e-02
1.081109046936035156e-02
1.075279712677001953e-02
1.069879531860351562e-02
1.069843769073486328e-02
1.064705848693847656e-02
1.060009002685546875e-02
1.053559780120849609e-02
1.045680046081542969e-02
1.037824153900146484e-02
1.031577587127685547e-02
1.027607917785644531e-02
1.023364067077636719e-02
1.026678085327148438e-02
1.026976108551025391e-02
1.028645038604736328e-02
1.024782657623291016e-02
1.021707057952880859e-02
1.017010211944580078e-02
1.015603542327880859e-02
1.010537147521972656e-02
1.006197929382324219e-02
1.001465320587158203e-02
9.955406188964843750e-03
9.929180145263671875e-03
9.892463684082031250e-03
9.872555732727050781e-03
9.789824485778808594e-03
9.792447090148925781e-03
9.801268577575683594e-03
9.729981422424316406e-03
9.781241416931152344e-03
9.769439697265625000e-03
9.750485420227050781e-03
9.713888168334960938e-03
9.612441062927246094e-03
9.540438652038574219e-03
9.433150291442871094e-03
9.365320205688476562e-03
9.341001510620117188e-03
9.268164634704589844e-03
9.244680404663085938e-03
9.154319763183593750e-03
9.126901626586914062e-03
9.087324142456054688e-03
9.049057960510253906e-03
8.988142013549804688e-03
8.975863456726074219e-03
8.961200714111328125e-03
8.916735649108886719e-03
8.801102638244628906e-03
8.628606796264648438e-03
8.495926856994628906e-03
8.429050445556640625e-03
8.415222167968750000e-03
8.328557014465332031e-03
8.292675018310546875e-03
8.262038230895996094e-03
8.217215538024902344e-03
8.152365684509277344e-03
8.088231086730957031e-03
8.049011230468750000e-03
8.031249046325683594e-03
8.021831512451171875e-03
7.960081100463867188e-03
7.906079292297363281e-03
7.873177528381347656e-03
7.779598236083984375e-03
7.747054100036621094e-03
7.656097412109375000e-03
7.677078247070312500e-03
7.624149322509765625e-03
7.520675659179687500e-03
7.532596588134765625e-03
7.525801658630371094e-03
7.473707199096679688e-03
7.413029670715332031e-03
7.405877113342285156e-03
7.337570190429687500e-03
7.282257080078125000e-03
7.262587547302246094e-03
7.220864295959472656e-03
7.190585136413574219e-03
6.996631622314453125e-03
6.804704666137695312e-03
6.745934486389160156e-03
6.682276725769042969e-03
6.624579429626464844e-03
6.626367568969726562e-03
6.644964218139648438e-03
6.600856781005859375e-03
6.529927253723144531e-03
6.470918655395507812e-03
6.383180618286132812e-03
6.348252296447753906e-03
6.275892257690429688e-03
6.303548812866210938e-03
6.265163421630859375e-03
6.179094314575195312e-03
6.066918373107910156e-03
5.919218063354492188e-03
5.869746208190917969e-03
5.773305892944335938e-03
5.774974822998046875e-03
5.750536918640136719e-03
5.825042724609375000e-03
5.786776542663574219e-03
5.832552909851074219e-03
5.712985992431640625e-03
5.669236183166503906e-03
5.677223205566406250e-03
5.645632743835449219e-03
5.596876144409179688e-03
5.568861961364746094e-03
5.514621734619140625e-03
5.411624908447265625e-03
5.261063575744628906e-03
5.000948905944824219e-03
4.936337471008300781e-03
4.892826080322265625e-03
4.868268966674804688e-03
4.916310310363769531e-03
4.901170730590820312e-03
4.910230636596679688e-03
4.884719848632812500e-03
4.806160926818847656e-03
4.732608795166015625e-03
4.707217216491699219e-03
4.673480987548828125e-03
4.674196243286132812e-03
4.635334014892578125e-03
4.524350166320800781e-03
4.329323768615722656e-03
4.065036773681640625e-03
3.931760787963867188e-03
3.871202468872070312e-03
3.868341445922851562e-03
3.807306289672851562e-03
3.880739212036132812e-03
3.983497619628906250e-03
3.909945487976074219e-03
3.829121589660644531e-03
3.755331039428710938e-03
3.738760948181152344e-03
3.680825233459472656e-03
3.627777099609375000e-03
3.608584403991699219e-03
3.517508506774902344e-03
3.427624702453613281e-03
3.194451332092285156e-03
2.993345260620117188e-03
2.853035926818847656e-03
2.796411514282226562e-03
2.830266952514648438e-03
2.829074859619140625e-03
2.902626991271972656e-03
2.895116806030273438e-03
2.820491790771484375e-03
2.725362777709960938e-03
2.704501152038574219e-03
2.735972404479980469e-03
2.696275711059570312e-03
2.672553062438964844e-03
2.682328224182128906e-03
2.542972564697265625e-03
2.317428588867187500e-03
1.988649368286132812e-03
1.819491386413574219e-03
1.690983772277832031e-03
1.628041267395019531e-03
1.672387123107910156e-03
1.677751541137695312e-03
1.697182655334472656e-03
1.599311828613281250e-03
1.478672027587890625e-03
1.399517059326171875e-03
1.336574554443359375e-03
1.362442970275878906e-03
1.361846923828125000e-03
1.259803771972656250e-03
1.141786575317382812e-03
8.833408355712890625e-04
3.196001052856445312e-04
-7.510185241699218750e-06
-1.617670059204101562e-04
-2.777576446533203125e-04
-2.739429473876953125e-04
-2.629756927490234375e-04
-2.660751342773437500e-04
-3.459453582763671875e-04
-3.963708877563476562e-04
-4.748106002807617188e-04
-5.422830581665039062e-04
-5.646944046020507812e-04
-5.431175231933593750e-04
-5.561113357543945312e-04
-7.220506668090820312e-04
-8.814334869384765625e-04
-1.258850097656250000e-03
-1.647830009460449219e-03
-1.847267150878906250e-03
-1.985192298889160156e-03
-1.980423927307128906e-03
-1.931786537170410156e-03
-1.910805702209472656e-03
-1.931548118591308594e-03
-2.002477645874023438e-03
-1.997709274291992188e-03
-2.026200294494628906e-03
-2.027273178100585938e-03
-1.982569694519042969e-03
-1.967787742614746094e-03
-2.001523971557617188e-03
-2.134799957275390625e-03
-2.357244491577148438e-03
-2.690672874450683594e-03
-2.907872200012207031e-03
-3.036975860595703125e-03
-3.066420555114746094e-03
-3.009557723999023438e-03
-2.963662147521972656e-03
-2.937197685241699219e-03
-2.968907356262207031e-03
-3.000497817993164062e-03
-3.015637397766113281e-03
-3.009319305419921875e-03
-2.944588661193847656e-03
-2.896904945373535156e-03
-2.925515174865722656e-03
-3.030419349670410156e-03
-3.181815147399902344e-03
-3.612637519836425781e-03
-3.968477249145507812e-03
-4.110693931579589844e-03
-4.171013832092285156e-03
-4.140973091125488281e-03
-4.121780395507812500e-03
-4.130482673645019531e-03
-4.124402999877929688e-03
-4.131793975830078125e-03
-4.174232482910156250e-03
-4.168510437011718750e-03
-4.108905792236328125e-03
-4.100203514099121094e-03
-4.038095474243164062e-03
-4.146575927734375000e-03
-4.260182380676269531e-03
-4.549860954284667969e-03
-5.004048347473144531e-03
-5.157828330993652344e-03
-5.284667015075683594e-03
-5.277991294860839844e-03
-5.183100700378417969e-03
-5.166888236999511719e-03
-5.192756652832031250e-03
-5.254626274108886719e-03
-5.247235298156738281e-03
-5.262732505798339844e-03
-5.263924598693847656e-03
-5.186676979064941406e-03
-5.143284797668457031e-03
-5.249500274658203125e-03
-5.377054214477539062e-03
-5.610227584838867188e-03
-5.994439125061035156e-03
-6.222724914550781250e-03
-6.312847137451171875e-03
-6.322979927062988281e-03
-6.315112113952636719e-03
-6.254553794860839844e-03
-6.266593933105468750e-03
-6.279706954956054688e-03
-6.336569786071777344e-03
-6.302595138549804688e-03
-6.307840347290039062e-03
-6.239533424377441406e-03
-6.174087524414062500e-03
-6.176352500915527344e-03
-6.211638450622558594e-03
-6.387472152709960938e-03
-6.757259368896484375e-03
-7.168531417846679688e-03
-7.273674011230468750e-03
-7.287263870239257812e-03
-7.248163223266601562e-03
-7.177114486694335938e-03
-7.123351097106933594e-03
-7.116913795471191406e-03
-7.132887840270996094e-03
-7.168173789978027344e-03
-7.155060768127441406e-03
-7.116198539733886719e-03
-6.974816322326660156e-03
-6.728887557983398438e-03
-6.807446479797363281e-03
-6.916522979736328125e-03
-7.146954536437988281e-03
-7.656216621398925781e-03
-7.811784744262695312e-03
-7.837891578674316406e-03
-7.899641990661621094e-03
-7.820487022399902344e-03
-7.683396339416503906e-03
-7.655858993530273438e-03
-7.715463638305664062e-03
-7.740974426269531250e-03
-7.729291915893554688e-03
-7.726788520812988281e-03
-7.628560066223144531e-03
-7.610082626342773438e-03
-7.623910903930664062e-03
-7.701516151428222656e-03
-7.896184921264648438e-03
-8.267641067504882812e-03
-8.595466613769531250e-03
-8.686304092407226562e-03
-8.785843849182128906e-03
-8.790731430053710938e-03
-8.739829063415527344e-03
-8.687257766723632812e-03
-8.677124977111816406e-03
-8.736610412597656250e-03
-8.734583854675292969e-03
-8.800983428955078125e-03
-8.840441703796386719e-03
-8.790850639343261719e-03
-8.764505386352539062e-03
-8.872032165527343750e-03
-8.920192718505859375e-03
-9.251594543457031250e-03
-9.684681892395019531e-03
-9.829044342041015625e-03
-9.912729263305664062e-03
-9.932875633239746094e-03
-9.956479072570800781e-03
-9.847521781921386719e-03
-9.820103645324707031e-03
-9.917974472045898438e-03
-9.961366653442382812e-03
-9.949445724487304688e-03
-1.001477241516113281e-02
-1.000750064849853516e-02
-1.000463962554931641e-02
-1.008236408233642578e-02
-1.012921333312988281e-02
-1.025032997131347656e-02
-1.063132286071777344e-02
-1.084661483764648438e-02
-1.092040538787841797e-02
-1.096415519714355469e-02
-1.088631153106689453e-02
-1.084864139556884766e-02
-1.076614856719970703e-02
-1.077294349670410156e-02
-1.081836223602294922e-02
-1.082646846771240234e-02
-1.083421707153320312e-02
-1.080715656280517578e-02
-1.074147224426269531e-02
-1.073873043060302734e-02
-1.076686382293701172e-02
-1.080107688903808594e-02
-1.088154315948486328e-02
-1.102507114410400391e-02
-1.099526882171630859e-02
-1.103627681732177734e-02
-1.099610328674316406e-02
-1.085674762725830078e-02
-1.081001758575439453e-02
-1.078593730926513672e-02
-1.086318492889404297e-02
-1.084172725677490234e-02
-1.084220409393310547e-02
-1.077318191528320312e-02
-1.075184345245361328e-02
-1.063716411590576172e-02
-1.063036918640136719e-02
-1.066946983337402344e-02
-1.067876815795898438e-02
-1.086890697479248047e-02
-1.089394092559814453e-02
-1.086974143981933594e-02
-1.081597805023193359e-02
-1.074445247650146484e-02
-1.068270206451416016e-02
-1.071596145629882812e-02
-1.073122024536132812e-02
-1.074182987213134766e-02
-1.070833206176757812e-02
-1.069056987762451172e-02
-1.069009304046630859e-02
-1.061439514160156250e-02
-1.063275337219238281e-02
-1.062989234924316406e-02
-1.063704490661621094e-02
-1.067852973937988281e-02
-1.069319248199462891e-02
-1.071894168853759766e-02
-1.070690155029296875e-02
-1.066064834594726562e-02
-1.058471202850341797e-02
-1.057803630828857422e-02
-1.060128211975097656e-02
-1.061725616455078125e-02
-1.067149639129638672e-02
-1.066052913665771484e-02
-1.063203811645507812e-02
-1.061964035034179688e-02
-1.059985160827636719e-02
-1.069366931915283203e-02
-1.084196567535400391e-02
-1.085233688354492188e-02
-1.092374324798583984e-02
-1.089823246002197266e-02
-1.093840599060058594e-02
-1.088213920593261719e-02
-1.080930233001708984e-02
-1.085698604583740234e-02
-1.084995269775390625e-02
-1.088631153106689453e-02
-1.090657711029052734e-02
-1.092827320098876953e-02
-1.088905334472656250e-02
-1.083827018737792969e-02
-1.079452037811279297e-02
-1.079666614532470703e-02
-1.088094711303710938e-02
-1.089680194854736328e-02
-1.087629795074462891e-02
-1.086747646331787109e-02
-1.078057289123535156e-02
-1.070463657379150391e-02
-1.065599918365478516e-02
-1.058924198150634766e-02
-1.058280467987060547e-02
-1.053607463836669922e-02
-1.056742668151855469e-02
-1.055514812469482422e-02
-1.050531864166259766e-02
-1.048004627227783203e-02
-1.043343544006347656e-02
-1.037251949310302734e-02
-1.033091545104980469e-02
-1.038444042205810547e-02
-1.045215129852294922e-02
-1.039159297943115234e-02
-1.035106182098388672e-02
-1.022982597351074219e-02
-1.019847393035888672e-02
-1.013338565826416016e-02
-1.006853580474853516e-02
-1.012647151947021484e-02
-1.011252403259277344e-02
-1.014435291290283203e-02
-1.012933254241943359e-02
-1.011264324188232422e-02
-1.012027263641357422e-02
-1.012492179870605469e-02
-1.011264324188232422e-02
-1.011753082275390625e-02
-1.020908355712890625e-02
-1.031923294067382812e-02
-1.021707057952880859e-02
-1.020765304565429688e-02
-1.014113426208496094e-02
-1.008391380310058594e-02
-1.009964942932128906e-02
-1.010954380035400391e-02
-1.011025905609130859e-02
-1.015985012054443359e-02
-1.010584831237792969e-02
-1.011168956756591797e-02
-1.008367538452148438e-02
-1.007091999053955078e-02
-1.009392738342285156e-02
-1.004135608673095703e-02
-1.009511947631835938e-02
-1.009798049926757812e-02
-1.008176803588867188e-02
-1.002550125122070312e-02
-9.949326515197753906e-03
-9.868025779724121094e-03
-9.870171546936035156e-03
-9.870290756225585938e-03
-9.840130805969238281e-03
-9.837508201599121094e-03
-9.797692298889160156e-03
-9.775638580322265625e-03
-9.737968444824218750e-03
-9.723782539367675781e-03
-9.696125984191894531e-03
-9.716749191284179688e-03
-9.669065475463867188e-03
-9.647727012634277344e-03
-9.607911109924316406e-03
-9.580969810485839844e-03
-9.588599205017089844e-03
-9.533405303955078125e-03
-9.506702423095703125e-03
-9.517312049865722656e-03
-9.487867355346679688e-03
-9.469866752624511719e-03
-9.482860565185546875e-03
-9.430885314941406250e-03
-9.423732757568359375e-03
-9.417057037353515625e-03
-9.356498718261718750e-03
-9.383797645568847656e-03
-9.362697601318359375e-03
-9.357929229736328125e-03
-9.344696998596191406e-03
-9.325623512268066406e-03
-9.320259094238281250e-03
-9.227156639099121094e-03
-9.206175804138183594e-03
-9.238600730895996094e-03
-9.226083755493164062e-03
-9.230256080627441406e-03
-9.173393249511718750e-03
-9.138584136962890625e-03
-9.107589721679687500e-03
-9.108901023864746094e-03
-9.099483489990234375e-03
-9.107589721679687500e-03
-9.138703346252441406e-03
-9.158253669738769531e-03
-9.223580360412597656e-03
-9.185552597045898438e-03
-9.171843528747558594e-03
-9.154319763183593750e-03
-9.196281433105468750e-03
-9.149074554443359375e-03
-9.124875068664550781e-03
-9.104728698730468750e-03
-8.999109268188476562e-03
-8.928775787353515625e-03
-8.882403373718261719e-03
-8.855581283569335938e-03
-8.801460266113281250e-03
-8.793354034423828125e-03
-8.825302124023437500e-03
-8.828639984130859375e-03
-8.803367614746093750e-03
-8.851408958435058594e-03
-8.798480033874511719e-03
-8.814096450805664062e-03
-8.777856826782226562e-03
-8.756756782531738281e-03
-8.738040924072265625e-03
-8.665919303894042969e-03
-8.613467216491699219e-03
-8.542537689208984375e-03
-8.476138114929199219e-03
-8.445620536804199219e-03
-8.424162864685058594e-03
-8.387804031372070312e-03
-8.396387100219726562e-03
-8.390545845031738281e-03
-8.380413055419921875e-03
-8.447051048278808594e-03
-8.419990539550781250e-03
-8.431077003479003906e-03
-8.482694625854492188e-03
-8.490085601806640625e-03
-8.445739746093750000e-03
-8.414149284362792969e-03
-8.418679237365722656e-03
-8.338809013366699219e-03
-8.311986923217773438e-03
-8.287191390991210938e-03
-8.214235305786132812e-03
-8.195877075195312500e-03
-8.148074150085449219e-03
-8.074998855590820312e-03
-8.039593696594238281e-03
-8.012294769287109375e-03
-7.924079895019531250e-03
-7.877349853515625000e-03
-7.787108421325683594e-03
-7.721781730651855469e-03
-7.623553276062011719e-03
-7.534384727478027344e-03
-7.115960121154785156e-03
-6.935954093933105469e-03
-6.766915321350097656e-03
-7.010579109191894531e-03
-6.947398185729980469e-03
-6.517887115478515625e-03
-6.562709808349609375e-03
-6.704688072204589844e-03
-7.142305374145507812e-03
-6.978988647460937500e-03
-6.988763809204101562e-03
-7.074952125549316406e-03
-7.304310798645019531e-03
-7.435798645019531250e-03
-7.493257522583007812e-03
-7.518410682678222656e-03
-7.446885108947753906e-03
-7.512688636779785156e-03
-7.494449615478515625e-03
-7.480263710021972656e-03
-7.485628128051757812e-03
-7.475972175598144531e-03
-7.501006126403808594e-03
-7.513284683227539062e-03
-7.488250732421875000e-03
-7.481813430786132812e-03
-7.493376731872558594e-03
-7.477641105651855469e-03
-7.509469985961914062e-03
-7.513999938964843750e-03
-7.524847984313964844e-03
-7.522940635681152344e-03
-7.442951202392578125e-03
-7.481098175048828125e-03
-7.429122924804687500e-03
-7.336378097534179688e-03
-7.325410842895507812e-03
-7.316112518310546875e-03
-7.241964340209960938e-03
-7.252693176269531250e-03
-7.252573966979980469e-03
-7.236242294311523438e-03
-7.203340530395507812e-03
-7.166385650634765625e-03
-7.195115089416503906e-03
-7.179617881774902344e-03
-7.160544395446777344e-03
-7.198452949523925781e-03
-7.205486297607421875e-03
-7.154703140258789062e-03
-7.123112678527832031e-03
-7.119774818420410156e-03
-7.067918777465820312e-03
-6.989836692810058594e-03
-7.016777992248535156e-03
-6.966590881347656250e-03
-6.939768791198730469e-03
-6.900310516357421875e-03
-6.880044937133789062e-03
-6.879448890686035156e-03
-6.801366806030273438e-03
-6.827831268310546875e-03
-6.822466850280761719e-03
-6.814956665039062500e-03
-6.853818893432617188e-03
-6.864666938781738281e-03
-6.849527359008789062e-03
-6.826400756835937500e-03
-6.797552108764648438e-03
-6.763577461242675781e-03
-6.755232810974121094e-03
-6.721377372741699219e-03
-6.700634956359863281e-03
-6.653785705566406250e-03
-6.633758544921875000e-03
-6.616830825805664062e-03
-6.570219993591308594e-03
-6.612300872802734375e-03
-6.578803062438964844e-03
-6.593585014343261719e-03
-6.571412086486816406e-03
-6.553888320922851562e-03
-6.536006927490234375e-03
-6.483793258666992188e-03
-6.495118141174316406e-03
-6.497502326965332031e-03
-6.487131118774414062e-03
-6.486654281616210938e-03
-6.456375122070312500e-03
-6.457090377807617188e-03
-6.395578384399414062e-03
-6.325483322143554688e-03
-6.334424018859863281e-03
-6.332039833068847656e-03
-6.290793418884277344e-03
-6.277561187744140625e-03
-6.284475326538085938e-03
-6.248831748962402344e-03
-6.204962730407714844e-03
-6.234645843505859375e-03
-6.256937980651855469e-03
-6.167054176330566406e-03
-6.139755249023437500e-03
-6.180047988891601562e-03
-6.154298782348632812e-03
-6.123542785644531250e-03
-6.091475486755371094e-03
-6.071090698242187500e-03
-6.054759025573730469e-03
-6.042242050170898438e-03
-5.996823310852050781e-03
-5.986452102661132812e-03
-5.968809127807617188e-03
-5.982637405395507812e-03
-5.981683731079101562e-03
-6.004810333251953125e-03
-6.020426750183105469e-03
-5.958676338195800781e-03
-5.967259407043457031e-03
-5.896806716918945312e-03
-5.911588668823242188e-03
-5.897641181945800781e-03
-5.832910537719726562e-03
-5.821943283081054688e-03
-5.831599235534667969e-03
-5.806565284729003906e-03
-5.744099617004394531e-03
-5.732774734497070312e-03
-5.751729011535644531e-03
-5.753040313720703125e-03
-5.709648132324218750e-03
-5.699634552001953125e-03
-5.642652511596679688e-03
-5.628585815429687500e-03
-5.653142929077148438e-03
-5.666494369506835938e-03
-5.631089210510253906e-03
-5.585789680480957031e-03
-5.569577217102050781e-03
-5.566000938415527344e-03
-5.543828010559082031e-03
-5.513787269592285156e-03
-5.543470382690429688e-03
-5.568981170654296875e-03
-5.512714385986328125e-03
-5.494475364685058594e-03
-5.508780479431152344e-03
-5.506396293640136719e-03
-5.502939224243164062e-03
-5.499958992004394531e-03
-5.539655685424804688e-03
-5.475878715515136719e-03
-5.492806434631347656e-03
-5.509972572326660156e-03
-5.509257316589355469e-03
-5.412817001342773438e-03
-5.468606948852539062e-03
-5.505323410034179688e-03
-5.398988723754882812e-03
-5.460381507873535156e-03
-5.395054817199707031e-03
-5.411863327026367188e-03
-5.429506301879882812e-03
-5.398869514465332031e-03
-5.422234535217285156e-03
-5.434513092041015625e-03
-5.410432815551757812e-03
-5.383133888244628906e-03
-5.306720733642578125e-03
-5.300283432006835938e-03
-5.307555198669433594e-03
-5.286574363708496094e-03
-5.260229110717773438e-03
-5.186796188354492188e-03
-5.156755447387695312e-03
-5.134224891662597656e-03
-5.071043968200683594e-03
-5.066871643066406250e-03
-5.057930946350097656e-03
-5.006670951843261719e-03
-5.027174949645996094e-03
-5.070805549621582031e-03
-5.021691322326660156e-03
-4.938006401062011719e-03
-4.910588264465332031e-03
-4.918098449707031250e-03
-4.901170730590820312e-03
-4.890084266662597656e-03
-4.885077476501464844e-03
-4.904508590698242188e-03
-4.887580871582031250e-03
-4.833459854125976562e-03
-4.807114601135253906e-03
-4.812598228454589844e-03
-4.755854606628417969e-03
-4.801154136657714844e-03
-4.767894744873046875e-03
-4.768610000610351562e-03
-4.787445068359375000e-03
-4.758358001708984375e-03
-4.731655120849609375e-03
-4.737377166748046875e-03
-4.721760749816894531e-03
-4.671096801757812500e-03
-4.690289497375488281e-03
-4.697680473327636719e-03
-4.685401916503906250e-03
-4.631996154785156250e-03
-4.625678062438964844e-03
-4.599690437316894531e-03
-4.590511322021484375e-03
-4.579901695251464844e-03
-4.551291465759277344e-03
-4.549384117126464844e-03
-4.563570022583007812e-03
-4.515290260314941406e-03
-4.554033279418945312e-03
-4.536747932434082031e-03
-4.510760307312011719e-03
-4.528284072875976562e-03
-4.458069801330566406e-03
-4.423618316650390625e-03
-4.433512687683105469e-03
-4.427313804626464844e-03
-4.373192787170410156e-03
-4.418134689331054688e-03
-4.440546035766601562e-03
-4.382848739624023438e-03
-4.357814788818359375e-03
-4.368185997009277344e-03
-4.344344139099121094e-03
-4.357457160949707031e-03
-4.345536231994628906e-03
-4.352688789367675781e-03
-4.363536834716796875e-03
-4.348635673522949219e-03
-4.358768463134765625e-03
-4.317164421081542969e-03
-4.275441169738769531e-03
-4.282116889953613281e-03
-4.329323768615722656e-03
-4.364013671875000000e-03
-4.313826560974121094e-03
-4.309177398681640625e-03
-4.276156425476074219e-03
-4.265546798706054688e-03
-4.278659820556640625e-03
-4.231810569763183594e-03
-4.191637039184570312e-03
-4.207491874694824219e-03
-4.185438156127929688e-03
-4.190683364868164062e-03
-4.184722900390625000e-03
-4.144787788391113281e-03
-4.139184951782226562e-03
-4.067659378051757812e-03
-4.075765609741210938e-03
-4.062652587890625000e-03
-4.045009613037109375e-03
-4.051208496093750000e-03
-3.965258598327636719e-03
-3.971815109252929688e-03
-3.992438316345214844e-03
-3.916025161743164062e-03
-3.947377204895019531e-03
-3.926157951354980469e-03
-3.920912742614746094e-03
-3.921270370483398438e-03
-3.846764564514160156e-03
-3.875851631164550781e-03
-3.875374794006347656e-03
-3.846049308776855469e-03
-3.863453865051269531e-03
-3.844857215881347656e-03
-3.819584846496582031e-03
-3.772139549255371094e-03
-3.818631172180175781e-03
-3.829479217529296875e-03
-3.767967224121093750e-03
-3.795504570007324219e-03
-3.800749778747558594e-03
-3.787994384765625000e-03
-3.780484199523925781e-03
-3.795742988586425781e-03
-3.762483596801757812e-03
-3.798365592956542969e-03
-3.762125968933105469e-03
-3.761410713195800781e-03
-3.741860389709472656e-03
-3.747820854187011719e-03
-3.734230995178222656e-03
-3.723859786987304688e-03
-3.745079040527343750e-03
-3.714203834533691406e-03
-3.688216209411621094e-03
-3.667235374450683594e-03
-3.651738166809082031e-03
-3.669500350952148438e-03
-3.645539283752441406e-03
-3.610610961914062500e-03
-3.615498542785644531e-03
-3.595471382141113281e-03
-3.566861152648925781e-03
-3.555536270141601562e-03
-3.541588783264160156e-03
-3.529548645019531250e-03
-3.529191017150878906e-03
-3.496646881103515625e-03
-3.503561019897460938e-03
-3.493428230285644531e-03
-3.463745117187500000e-03
-3.466486930847167969e-03
-3.445982933044433594e-03
-3.410816192626953125e-03
-3.387212753295898438e-03
-3.387808799743652344e-03
-3.396391868591308594e-03
-3.387808799743652344e-03
-3.377556800842285156e-03
-3.342270851135253906e-03
-3.358721733093261719e-03
-3.367424011230468750e-03
-3.313302993774414062e-03
-3.316044807434082031e-03
-3.335475921630859375e-03
-3.301501274108886719e-03
-3.301978111267089844e-03
-3.276348114013671875e-03
-3.218889236450195312e-03
-3.253102302551269531e-03
-3.231406211853027344e-03
-3.210783004760742188e-03
-3.189921379089355469e-03
-3.189086914062500000e-03
-3.190040588378906250e-03
-3.197908401489257812e-03
-3.191232681274414062e-03
-3.145933151245117188e-03
-3.192782402038574219e-03
-3.194212913513183594e-03
-3.150343894958496094e-03
-3.159284591674804688e-03
-3.124594688415527344e-03
-3.100275993347167969e-03
-3.098726272583007812e-03
-3.042817115783691406e-03
-3.046751022338867188e-03
-3.044009208679199219e-03
-3.004789352416992188e-03
-3.017663955688476562e-03
-3.038048744201660156e-03
-3.027439117431640625e-03
-3.021597862243652344e-03
-3.016710281372070312e-03
-3.023147583007812500e-03
-3.056526184082031250e-03
-3.000259399414062500e-03
-3.076314926147460938e-03
-3.059744834899902344e-03
-2.995252609252929688e-03
-3.003239631652832031e-03
-2.965450286865234375e-03
-2.974629402160644531e-03
-2.986550331115722656e-03
-2.957344055175781250e-03
-2.922058105468750000e-03
-2.967476844787597656e-03
-2.992272377014160156e-03
-3.033041954040527344e-03
-2.984285354614257812e-03
-2.963423728942871094e-03
-2.967238426208496094e-03
-2.962589263916015625e-03
-2.992868423461914062e-03
-2.974271774291992188e-03
-2.939462661743164062e-03
-2.875924110412597656e-03
-2.923488616943359375e-03
-2.956628799438476562e-03
-2.876520156860351562e-03
-2.862691879272460938e-03
-2.862334251403808594e-03
-2.839803695678710938e-03
-2.834081649780273438e-03
-2.772569656372070312e-03
-2.792954444885253906e-03
-2.800941467285156250e-03
-2.791285514831542969e-03
-2.808809280395507812e-03
-2.779722213745117188e-03
-2.764701843261718750e-03
-2.711772918701171875e-03
-2.712249755859375000e-03
-2.722859382629394531e-03
-2.688884735107421875e-03
-2.699971199035644531e-03
-2.690792083740234375e-03
-2.722740173339843750e-03
-2.747178077697753906e-03
-2.752661705017089844e-03
-2.725958824157714844e-03
-2.721190452575683594e-03
-2.769351005554199219e-03
-2.778649330139160156e-03
-2.788186073303222656e-03
-2.770423889160156250e-03
-2.760767936706542969e-03
-2.704977989196777344e-03
-2.684712409973144531e-03
-2.698421478271484375e-03
-2.640962600708007812e-03
-2.645850181579589844e-03
-2.626657485961914062e-03
-2.618193626403808594e-03
-2.614617347717285156e-03
-2.629995346069335938e-03
-2.619981765747070312e-03
-2.589821815490722656e-03
-2.576828002929687500e-03
-2.590775489807128906e-03
-2.590537071228027344e-03
-2.605795860290527344e-03
-2.583026885986328125e-03
-2.497673034667968750e-03
-2.499818801879882812e-03
-2.447843551635742188e-03
-2.409458160400390625e-03
-2.378702163696289062e-03
-2.373337745666503906e-03
-2.309083938598632812e-03
-2.378344535827636719e-03
-2.375006675720214844e-03
-2.358317375183105469e-03
-2.462029457092285156e-03
-2.451300621032714844e-03
-2.459883689880371094e-03
-2.488255500793457031e-03
-2.569794654846191406e-03
-2.539396286010742188e-03
-2.540826797485351562e-03
-2.536892890930175781e-03
-2.543807029724121094e-03
-2.603769302368164062e-03
-2.477049827575683594e-03
-2.517461776733398438e-03
-2.484440803527832031e-03
-2.627968788146972656e-03
-2.627611160278320312e-03
-2.579450607299804688e-03
-2.685904502868652344e-03
-2.841234207153320312e-03
-2.738237380981445312e-03
-3.140926361083984375e-03
-4.472136497497558594e-03
-4.416108131408691406e-03
-4.425764083862304688e-03
-4.661083221435546875e-03
-4.591822624206542969e-03
-4.636645317077636719e-03
-4.505872726440429688e-03
-4.585027694702148438e-03
-4.523873329162597656e-03
-4.617571830749511719e-03
-4.815697669982910156e-03
-4.893302917480468750e-03
-4.793643951416015625e-03
-4.860639572143554688e-03
-4.870057106018066406e-03
-4.654169082641601562e-03
-6.615519523620605469e-03
-7.548332214355468750e-03
-7.133483886718750000e-03
-7.400393486022949219e-03
-7.243156433105468750e-03
-7.312536239624023438e-03
-7.281184196472167969e-03
-7.234573364257812500e-03
-7.263183593750000000e-03
-7.269263267517089844e-03
-7.245779037475585938e-03
-7.278680801391601562e-03
-7.235169410705566406e-03
-7.056236267089843750e-03
-7.206201553344726562e-03
-6.910204887390136719e-03
-8.243322372436523438e-03
-1.004052162170410156e-02
-9.812355041503906250e-03
-9.836077690124511719e-03
-9.732246398925781250e-03
-9.600758552551269531e-03
-9.620904922485351562e-03
-9.729743003845214844e-03
-9.890913963317871094e-03
-9.673118591308593750e-03
-9.595155715942382812e-03
-9.653329849243164062e-03
-9.522438049316406250e-03
-9.448289871215820312e-03
-9.631633758544921875e-03
-9.798526763916015625e-03
-1.030242443084716797e-02
-1.089203357696533203e-02
-1.120257377624511719e-02
-1.159286499023437500e-02
-1.153159141540527344e-02
-1.163887977600097656e-02
-1.157724857330322266e-02
-1.129543781280517578e-02
-1.132726669311523438e-02
-1.127910614013671875e-02
-1.107382774353027344e-02
-1.100838184356689453e-02
-1.136553287506103516e-02
-1.133370399475097656e-02
-1.137650012969970703e-02
-1.048099994659423828e-02
-1.051545143127441406e-02
-6.299972534179687500e-03
-1.757860183715820312e-03
-1.871466636657714844e-03
-1.057028770446777344e-03
-9.883642196655273438e-04
-1.193881034851074219e-03
-1.314163208007812500e-03
-1.453876495361328125e-03
-1.356482505798339844e-03
-1.299858093261718750e-03
-9.449720382690429688e-04
-9.517669677734375000e-04
-8.475780487060546875e-04
-1.341938972473144531e-03
-1.008033752441406250e-03
-1.563787460327148438e-03
-1.682043075561523438e-04
6.392359733581542969e-03
7.280945777893066406e-03
7.018923759460449219e-03
7.299542427062988281e-03
6.854772567749023438e-03
6.946086883544921875e-03
6.822109222412109375e-03
6.967425346374511719e-03
6.971716880798339844e-03
7.062911987304687500e-03
6.979227066040039062e-03
6.961703300476074219e-03
6.952047348022460938e-03
6.727218627929687500e-03
7.071375846862792969e-03
6.387948989868164062e-03
1.238358020782470703e-02
1.619255542755126953e-02
1.529145240783691406e-02
1.590895652770996094e-02
1.557993888854980469e-02
1.582527160644531250e-02
1.563906669616699219e-02
1.586771011352539062e-02
1.583886146545410156e-02
1.572799682617187500e-02
1.580774784088134766e-02
1.541805267333984375e-02
1.556706428527832031e-02
1.527285575866699219e-02
1.577758789062500000e-02
1.487231254577636719e-02
1.759529113769531250e-02
2.374327182769775391e-02
2.337121963500976562e-02
2.344763278961181641e-02
2.326917648315429688e-02
2.326619625091552734e-02
2.314615249633789062e-02
2.305459976196289062e-02
2.312004566192626953e-02
2.288389205932617188e-02
2.295613288879394531e-02
2.268707752227783203e-02
2.265405654907226562e-02
2.261459827423095703e-02
2.262878417968750000e-02
2.265310287475585938e-02
2.259075641632080078e-02
2.931797504425048828e-02
3.149724006652832031e-02
3.075361251831054688e-02
3.110563755035400391e-02
3.069901466369628906e-02
3.082454204559326172e-02
3.058207035064697266e-02
3.076684474945068359e-02
3.055012226104736328e-02
3.056514263153076172e-02
3.054904937744140625e-02
3.026258945465087891e-02
3.039085865020751953e-02
2.986681461334228516e-02
3.033328056335449219e-02
2.912664413452148438e-02
3.339803218841552734e-02
3.862059116363525391e-02
3.763365745544433594e-02
3.798866271972656250e-02
3.747677803039550781e-02
3.758800029754638672e-02
3.744077682495117188e-02
3.745818138122558594e-02
3.733170032501220703e-02
3.716123104095458984e-02
3.723633289337158203e-02
3.696465492248535156e-02
3.712844848632812500e-02
3.671920299530029297e-02
3.703820705413818359e-02
3.657639026641845703e-02
3.755915164947509766e-02
4.447567462921142578e-02
4.519188404083251953e-02
4.490411281585693359e-02
4.487287998199462891e-02
4.453408718109130859e-02
4.462778568267822266e-02
4.435706138610839844e-02
4.441094398498535156e-02
4.411530494689941406e-02
4.402053356170654297e-02
4.385209083557128906e-02
4.374933242797851562e-02
4.379200935363769531e-02
4.345893859863281250e-02
4.390585422515869141e-02
4.279005527496337891e-02
4.813313484191894531e-02
5.187845230102539062e-02
5.084383487701416016e-02
5.131936073303222656e-02
5.079030990600585938e-02
5.083250999450683594e-02
5.036163330078125000e-02
5.049860477447509766e-02
5.030739307403564453e-02
4.998064041137695312e-02
5.001914501190185547e-02
4.970359802246093750e-02
4.997837543487548828e-02
4.948413372039794922e-02
4.994928836822509766e-02
4.899513721466064453e-02
5.135941505432128906e-02
5.794847011566162109e-02
5.769181251525878906e-02
5.771315097808837891e-02
5.757534503936767578e-02
5.726099014282226562e-02
5.691003799438476562e-02
5.676066875457763672e-02
5.685079097747802734e-02
5.648803710937500000e-02
5.632281303405761719e-02
5.606234073638916016e-02
5.598223209381103516e-02
5.586051940917968750e-02
5.575287342071533203e-02
5.566847324371337891e-02
5.525934696197509766e-02
6.173980236053466797e-02
6.396019458770751953e-02
6.289470195770263672e-02
6.323528289794921875e-02
6.278419494628906250e-02
6.266617774963378906e-02
6.230258941650390625e-02
6.236600875854492188e-02
6.198740005493164062e-02
6.162977218627929688e-02
6.142604351043701172e-02
6.105744838714599609e-02
6.135606765747070312e-02
6.090056896209716797e-02
6.143164634704589844e-02
6.010866165161132812e-02
6.401491165161132812e-02
6.928622722625732422e-02
6.819498538970947266e-02
6.839895248413085938e-02
6.797921657562255859e-02
6.776773929595947266e-02
6.730604171752929688e-02
6.703686714172363281e-02
6.694746017456054688e-02
6.670606136322021484e-02
6.672108173370361328e-02
6.629741191864013672e-02
6.630229949951171875e-02
6.593096256256103516e-02
6.608319282531738281e-02
6.550717353820800781e-02
6.628537178039550781e-02
7.315313816070556641e-02
7.391631603240966797e-02
7.335722446441650391e-02
7.350254058837890625e-02
7.308590412139892578e-02
7.285082340240478516e-02
7.243835926055908203e-02
7.234191894531250000e-02
7.213413715362548828e-02
7.190775871276855469e-02
7.177472114562988281e-02
7.147550582885742188e-02
7.144808769226074219e-02
7.102692127227783203e-02
7.125306129455566406e-02
7.008242607116699219e-02
7.537174224853515625e-02
7.915771007537841797e-02
7.785713672637939453e-02
7.819008827209472656e-02
7.766473293304443359e-02
7.752430438995361328e-02
7.708525657653808594e-02
7.700395584106445312e-02
7.694697380065917969e-02
7.663094997406005859e-02
7.659065723419189453e-02
7.619464397430419922e-02
7.616841793060302734e-02
7.560646533966064453e-02
7.592475414276123047e-02
7.487797737121582031e-02
7.720863819122314453e-02
8.386051654815673828e-02
8.350098133087158203e-02
8.348989486694335938e-02
8.321952819824218750e-02
8.295297622680664062e-02
8.260107040405273438e-02
8.236122131347656250e-02
8.226108551025390625e-02
8.192777633666992188e-02
8.159875869750976562e-02
8.117234706878662109e-02
8.103859424591064453e-02
8.081054687500000000e-02
8.064913749694824219e-02
8.049166202545166016e-02
7.977032661437988281e-02
8.617854118347167969e-02
8.837997913360595703e-02
8.724701404571533203e-02
8.744657039642333984e-02
8.685064315795898438e-02
8.681380748748779297e-02
8.623468875885009766e-02
8.614993095397949219e-02
8.586394786834716797e-02
8.565378189086914062e-02
8.545660972595214844e-02
8.508825302124023438e-02
8.502316474914550781e-02
8.438682556152343750e-02
8.486938476562500000e-02
8.335721492767333984e-02
8.737969398498535156e-02
9.301626682281494141e-02
9.183776378631591797e-02
9.213125705718994141e-02
9.158182144165039062e-02
9.150040149688720703e-02
9.104657173156738281e-02
9.087550640106201172e-02
9.058094024658203125e-02
9.020781517028808594e-02
9.000980854034423828e-02
8.970475196838378906e-02
8.950448036193847656e-02
8.881664276123046875e-02
8.879888057708740234e-02
8.839881420135498047e-02
8.874464035034179688e-02
9.559535980224609375e-02
9.631001949310302734e-02
9.537625312805175781e-02
9.535574913024902344e-02
9.491026401519775391e-02
9.495556354522705078e-02
9.437561035156250000e-02
9.435224533081054688e-02
9.379947185516357422e-02
9.366023540496826172e-02
9.341394901275634766e-02
9.307956695556640625e-02
9.287750720977783203e-02
9.230315685272216797e-02
9.241533279418945312e-02
9.119629859924316406e-02
9.617364406585693359e-02
1.000964641571044922e-01
9.863066673278808594e-02
9.899508953094482422e-02
9.836494922637939453e-02
9.816443920135498047e-02
9.779500961303710938e-02
9.775328636169433594e-02
9.754288196563720703e-02
9.705984592437744141e-02
9.686267375946044922e-02
9.649693965911865234e-02
9.599924087524414062e-02
9.570682048797607422e-02
9.563004970550537109e-02
9.517407417297363281e-02
9.735536575317382812e-02
1.024072170257568359e-01
1.027560234069824219e-01
1.028177738189697266e-01
1.024842262268066406e-01
1.019675731658935547e-01
1.015055179595947266e-01
1.013922691345214844e-01
1.009825468063354492e-01
1.006920337677001953e-01
1.005103588104248047e-01
1.001901626586914062e-01
1.000136137008666992e-01
9.953677654266357422e-02
9.928905963897705078e-02
9.829115867614746094e-02
9.780740737915039062e-02
9.158337116241455078e-02
8.853852748870849609e-02
8.841812610626220703e-02
8.752107620239257812e-02
8.751904964447021484e-02
8.725869655609130859e-02
8.724331855773925781e-02
8.680033683776855469e-02
8.647680282592773438e-02
8.607208728790283203e-02
8.559155464172363281e-02
8.540165424346923828e-02
8.492708206176757812e-02
8.507156372070312500e-02
8.403277397155761719e-02
8.496379852294921875e-02
8.016359806060791016e-02
7.336294651031494141e-02
7.425594329833984375e-02
7.342386245727539062e-02
7.355284690856933594e-02
7.309877872467041016e-02
7.256674766540527344e-02
7.270383834838867188e-02
7.243943214416503906e-02
7.234787940979003906e-02
7.205390930175781250e-02
7.190430164337158203e-02
7.126212120056152344e-02
7.129383087158203125e-02
7.091891765594482422e-02
7.081222534179687500e-02
6.964433193206787109e-02
6.171190738677978516e-02
6.046628952026367188e-02
6.035304069519042969e-02
5.964672565460205078e-02
5.973529815673828125e-02
5.946576595306396484e-02
5.953550338745117188e-02
6.066358089447021484e-02
6.076502799987792969e-02
6.079149246215820312e-02
5.935156345367431641e-02
5.919790267944335938e-02
6.026315689086914062e-02
6.044077873229980469e-02
5.907750129699707031e-02
5.850422382354736328e-02
5.301725864410400391e-02
4.746103286743164062e-02
4.870498180389404297e-02
4.718434810638427734e-02
4.693925380706787109e-02
4.671466350555419922e-02
4.654359817504882812e-02
4.632592201232910156e-02
4.635989665985107422e-02
4.634189605712890625e-02
4.599201679229736328e-02
4.569685459136962891e-02
4.553103446960449219e-02
4.582250118255615234e-02
4.512321949005126953e-02
4.537057876586914062e-02
4.290938377380371094e-02
3.529679775238037109e-02
3.482460975646972656e-02
3.487932682037353516e-02
3.456342220306396484e-02
3.474009037017822266e-02
3.460454940795898438e-02
3.434944152832031250e-02
3.406560420989990234e-02
3.395009040832519531e-02
3.352320194244384766e-02
3.325438499450683594e-02
3.312766551971435547e-02
3.274047374725341797e-02
3.295588493347167969e-02
3.266406059265136719e-02
3.305864334106445312e-02
2.551448345184326172e-02
2.197170257568359375e-02
2.296495437622070312e-02
2.210795879364013672e-02
2.240169048309326172e-02
2.221608161926269531e-02
2.249562740325927734e-02
2.219498157501220703e-02
2.231526374816894531e-02
2.203845977783203125e-02
2.177155017852783203e-02
2.179729938507080078e-02
2.128434181213378906e-02
2.157354354858398438e-02
2.082431316375732422e-02
2.198576927185058594e-02
1.758587360382080078e-02
1.051318645477294922e-02
1.135218143463134766e-02
1.090848445892333984e-02
1.100730895996093750e-02
1.103830337524414062e-02
1.092183589935302734e-02
1.082527637481689453e-02
1.079392433166503906e-02
1.086390018463134766e-02
1.053059101104736328e-02
1.069045066833496094e-02
1.044213771820068359e-02
1.058411598205566406e-02
1.023042201995849609e-02
1.031720638275146484e-02
9.683370590209960938e-03
1.634955406188964844e-03
1.873970031738281250e-04
5.630254745483398438e-04
1.115798950195312500e-04
4.340410232543945312e-04
1.339912414550781250e-04
2.756118774414062500e-04
1.802444458007812500e-04
-1.728534698486328125e-05
-2.144575119018554688e-04
-2.521276473999023438e-04
-1.701116561889648438e-04
-3.802776336669921875e-04
-1.304149627685546875e-04
-8.796453475952148438e-04
2.129077911376953125e-04
-5.128026008605957031e-03
-1.015233993530273438e-02
-9.074926376342773438e-03
-9.616255760192871094e-03
-9.252190589904785156e-03
-9.631633758544921875e-03
-9.659647941589355469e-03
-9.476900100708007812e-03
-9.622693061828613281e-03
-9.625434875488281250e-03
-9.682178497314453125e-03
-9.513139724731445312e-03
-9.869098663330078125e-03
-9.430289268493652344e-03
-9.899258613586425781e-03
-9.243249893188476562e-03
-1.140117645263671875e-02
-1.920866966247558594e-02
-1.954948902130126953e-02
-1.942980289459228516e-02
-1.947414875030517578e-02
-1.946210861206054688e-02
-1.963281631469726562e-02
-1.944065093994140625e-02
-1.952767372131347656e-02
-1.956784725189208984e-02
-1.955115795135498047e-02
-1.953494548797607422e-02
-1.943802833557128906e-02
-1.952040195465087891e-02
-1.933717727661132812e-02
-1.969492435455322266e-02
-1.897847652435302734e-02
-2.619290351867675781e-02
-2.971577644348144531e-02
-2.851569652557373047e-02
-2.913463115692138672e-02
-2.882277965545654297e-02
-2.902877330780029297e-02
-2.888500690460205078e-02
-2.909970283508300781e-02
-2.906382083892822266e-02
-2.882134914398193359e-02
-2.887630462646484375e-02
-2.853035926818847656e-02
-2.882635593414306641e-02
-2.839839458465576172e-02
-2.912735939025878906e-02
-2.786397933959960938e-02
-3.182590007781982422e-02
-3.882205486297607422e-02
-3.782999515533447266e-02
-3.815865516662597656e-02
-3.788554668426513672e-02
-3.805375099182128906e-02
-3.774976730346679688e-02
-3.775417804718017578e-02
-3.782582283020019531e-02
-3.753685951232910156e-02
-3.766381740570068359e-02
-3.754580020904541016e-02
-3.769624233245849609e-02
-3.748047351837158203e-02
-3.757178783416748047e-02
-3.735888004302978516e-02
-3.757679462432861328e-02
-4.556798934936523438e-02
-4.727411270141601562e-02
-4.656839370727539062e-02
-4.670047760009765625e-02
-4.635679721832275391e-02
-4.656887054443359375e-02
-4.626226425170898438e-02
-4.646515846252441406e-02
-4.620063304901123047e-02
-4.599201679229736328e-02
-4.611349105834960938e-02
-4.590082168579101562e-02
-4.594480991363525391e-02
-4.540812969207763672e-02
-4.608905315399169922e-02
-4.475474357604980469e-02
-5.039548873901367188e-02
-5.586135387420654297e-02
-5.460965633392333984e-02
-5.508553981781005859e-02
-5.448436737060546875e-02
-5.465674400329589844e-02
-5.439078807830810547e-02
-5.436372756958007812e-02
-5.438411235809326172e-02
-5.410194396972656250e-02
-5.417191982269287109e-02
-5.393064022064208984e-02
-5.409955978393554688e-02
-5.350995063781738281e-02
-5.399119853973388672e-02
-5.317735671997070312e-02
-5.508279800415039062e-02
-6.278359889984130859e-02
-6.299400329589843750e-02
-6.287419795989990234e-02
-6.280446052551269531e-02
-6.250464916229248047e-02
-6.257796287536621094e-02
-6.230807304382324219e-02
-6.210553646087646484e-02
-6.188428401947021484e-02
-6.196117401123046875e-02
-6.159019470214843750e-02
-6.160247325897216797e-02
-6.155467033386230469e-02
-6.130218505859375000e-02
-6.155133247375488281e-02
-6.098163127899169922e-02
-6.835830211639404297e-02
-7.131469249725341797e-02
-6.996107101440429688e-02
-7.025587558746337891e-02
-6.985056400299072266e-02
-7.014131546020507812e-02
-6.990778446197509766e-02
-6.975710391998291016e-02
-6.935369968414306641e-02
-6.938588619232177734e-02
-6.929063796997070312e-02
-6.906282901763916016e-02
-6.927931308746337891e-02
-6.856560707092285156e-02
-6.920444965362548828e-02
-6.761205196380615234e-02
-7.279360294342041016e-02
-8.020997047424316406e-02
-7.892084121704101562e-02
-7.915484905242919922e-02
-7.879090309143066406e-02
-7.857227325439453125e-02
-7.822740077972412109e-02
-7.812869548797607422e-02
-7.812559604644775391e-02
-7.788681983947753906e-02
-7.785665988922119141e-02
-7.756960391998291016e-02
-7.726752758026123047e-02
-7.686376571655273438e-02
-7.716596126556396484e-02
-7.682096958160400391e-02
-7.828402519226074219e-02
-8.571434020996093750e-02
-8.707535266876220703e-02
-8.682942390441894531e-02
-8.711230754852294922e-02
-8.645808696746826172e-02
-8.629715442657470703e-02
-8.586061000823974609e-02
-8.575189113616943359e-02
-8.565604686737060547e-02
-8.538150787353515625e-02
-8.524715900421142578e-02
-8.497095108032226562e-02
-8.515334129333496094e-02
-8.491122722625732422e-02
-8.425724506378173828e-02
-8.373236656188964844e-02
-8.268833160400390625e-02
-8.164691925048828125e-02
-8.113563060760498047e-02
-8.060359954833984375e-02
-8.042299747467041016e-02
-8.048462867736816406e-02
-8.023071289062500000e-02
-8.014225959777832031e-02
-7.991564273834228516e-02
-7.971596717834472656e-02
-7.940495014190673828e-02
-7.919788360595703125e-02
-7.886564731597900391e-02
-7.885205745697021484e-02
-7.842910289764404297e-02
-7.869958877563476562e-02
-7.765924930572509766e-02
-7.511508464813232422e-02
-7.496452331542968750e-02
-7.496917247772216797e-02
-7.467389106750488281e-02
-7.472884654998779297e-02
-7.439315319061279297e-02
-7.431077957153320312e-02
-7.393753528594970703e-02
-7.375991344451904297e-02
-7.365751266479492188e-02
-7.349288463592529297e-02
-7.320713996887207031e-02
-7.295608520507812500e-02
-7.295382022857666016e-02
-7.278418540954589844e-02
-7.283318042755126953e-02
-7.055926322937011719e-02
-6.920623779296875000e-02
-6.943809986114501953e-02
-6.912946701049804688e-02
-6.908559799194335938e-02
-6.905388832092285156e-02
-6.891727447509765625e-02
-6.870269775390625000e-02
-6.841146945953369141e-02
-6.838989257812500000e-02
-6.817793846130371094e-02
-6.794786453247070312e-02
-6.779885292053222656e-02
-6.777238845825195312e-02
-6.726193428039550781e-02
-6.749033927917480469e-02
-6.605041027069091797e-02
-6.407034397125244141e-02
-6.421065330505371094e-02
-6.388568878173828125e-02
-6.381618976593017578e-02
-6.386077404022216797e-02
-6.347370147705078125e-02
-6.328332424163818359e-02
-6.330049037933349609e-02
-6.302380561828613281e-02
-6.289839744567871094e-02
-6.281960010528564453e-02
-6.265711784362792969e-02
-6.265020370483398438e-02
-6.232202053070068359e-02
-6.215929985046386719e-02
-6.196260452270507812e-02
-5.951499938964843750e-02
-5.898308753967285156e-02
-5.886626243591308594e-02
-5.851423740386962891e-02
-5.860984325408935547e-02
-5.826795101165771484e-02
-5.816495418548583984e-02
-5.829548835754394531e-02
-5.812275409698486328e-02
-5.783689022064208984e-02
-5.750083923339843750e-02
-5.730068683624267578e-02
-5.721700191497802734e-02
-5.718970298767089844e-02
-5.681109428405761719e-02
-5.729091167449951172e-02
-5.560243129730224609e-02
-5.373597145080566406e-02
-5.398666858673095703e-02
-5.368673801422119141e-02
-5.365777015686035156e-02
-5.344355106353759766e-02
-5.335187911987304688e-02
-5.333995819091796875e-02
-5.323898792266845703e-02
-5.311012268066406250e-02
-5.278599262237548828e-02
-5.264198780059814453e-02
-5.249500274658203125e-02
-5.237305164337158203e-02
-5.192506313323974609e-02
-5.213785171508789062e-02
-5.153429508209228516e-02
-4.913806915283203125e-02
-4.902386665344238281e-02
-4.898703098297119141e-02
-4.881787300109863281e-02
-4.884111881256103516e-02
-4.876840114593505859e-02
-4.875445365905761719e-02
-4.858362674713134766e-02
-4.841113090515136719e-02
-4.829466342926025391e-02
-4.824995994567871094e-02
-4.806363582611083984e-02
-4.786586761474609375e-02
-4.769575595855712891e-02
-4.740405082702636719e-02
-4.743278026580810547e-02
-4.567229747772216797e-02
-4.465270042419433594e-02
-4.471111297607421875e-02
-4.427421092987060547e-02
-4.421710968017578125e-02
-4.401326179504394531e-02
-4.401016235351562500e-02
-4.386901855468750000e-02
-4.386520385742187500e-02
-4.388260841369628906e-02
-4.387164115905761719e-02
-4.371476173400878906e-02
-4.339551925659179688e-02
-4.336333274841308594e-02
-4.324102401733398438e-02
-4.329991340637207031e-02
-4.317808151245117188e-02
-4.278266429901123047e-02
-4.302382469177246094e-02
-4.294943809509277344e-02
-4.272747039794921875e-02
-4.248201847076416016e-02
-4.235374927520751953e-02
-4.221105575561523438e-02
-4.206895828247070312e-02
-4.208588600158691406e-02
-4.204821586608886719e-02
-4.189574718475341797e-02
-4.150116443634033203e-02
-4.151344299316406250e-02
-4.168653488159179688e-02
-4.155099391937255859e-02
-4.152643680572509766e-02
-4.125535488128662109e-02
-4.111981391906738281e-02
-4.106342792510986328e-02
-4.097521305084228516e-02
-4.079735279083251953e-02
-4.071438312530517578e-02
-4.067397117614746094e-02
-4.046118259429931641e-02
-4.053652286529541016e-02
-4.039132595062255859e-02
-4.029989242553710938e-02
-4.009723663330078125e-02
-3.998684883117675781e-02
-4.007959365844726562e-02
-3.987061977386474609e-02
-3.986382484436035156e-02
-3.983044624328613281e-02
-3.959631919860839844e-02
-3.954398632049560547e-02
-3.949260711669921875e-02
-3.940367698669433594e-02
-3.928303718566894531e-02
-3.924036026000976562e-02
-3.906333446502685547e-02
-3.891575336456298828e-02
-3.883171081542968750e-02
-3.868269920349121094e-02
-3.861320018768310547e-02
-3.866863250732421875e-02
-3.856980800628662109e-02
-3.836250305175781250e-02
-3.838396072387695312e-02
-3.839433193206787109e-02
-3.812909126281738281e-02
-3.807044029235839844e-02
-3.820121288299560547e-02
-3.811705112457275391e-02
-3.800737857818603516e-02
-3.793573379516601562e-02
-3.784048557281494141e-02
-3.766226768493652344e-02
-3.754091262817382812e-02
-3.734338283538818359e-02
-3.722000122070312500e-02
-3.741371631622314453e-02
-3.731906414031982422e-02
-3.712153434753417969e-02
-3.702139854431152344e-02
-3.692352771759033203e-02
-3.670787811279296875e-02
-3.655445575714111328e-02
-3.659558296203613281e-02
-3.642988204956054688e-02
-3.631258010864257812e-02
-3.619956970214843750e-02
-3.609848022460937500e-02
-3.605854511260986328e-02
-3.606319427490234375e-02
-3.587138652801513672e-02
-3.577148914337158203e-02
-3.589391708374023438e-02
-3.579008579254150391e-02
-3.562819957733154297e-02
-3.554880619049072266e-02
-3.528130054473876953e-02
-3.528320789337158203e-02
-3.517568111419677734e-02
-3.511750698089599609e-02
-3.510594367980957031e-02
-3.504717350006103516e-02
-3.495287895202636719e-02
-3.471100330352783203e-02
-3.470206260681152344e-02
-3.458273410797119141e-02
