0.000000000000000000e+00
0.000000000000000000e+00
0.000000000000000000e+00
0.000000000000000000e+00
0.000000000000000000e+00
0.000000000000000000e+00
0.000000000000000000e+00
0.000000000000000000e+00
0.000000000000000000e+00
0.000000000000000000e+00
0.000000000000000000e+00
0.000000000000000000e+00
0.000000000000000000e+00
0.000000000000000000e+00
0.000000000000000000e+00
0.000000000000000000e+00
0.000000000000000000e+00
0.000000000000000000e+00
0.000000000000000000e+00
0.000000000000000000e+00
0.000000000000000000e+00
0.000000000000000000e+00
0.000000000000000000e+00
0.000000000000000000e+00
0.000000000000000000e+00
0.000000000000000000e+00
0.000000000000000000e+00
0.000000000000000000e+00
0.000000000000000000e+00
0.000000000000000000e+00
0.000000000000000000e+00
0.000000000000000000e+00
0.000000000000000000e+00
0.000000000000000000e+00
0.000000000000000000e+00
0.000000000000000000e+00
0.000000000000000000e+00
0.000000000000000000e+00
0.000000000000000000e+00
0.000000000000000000e+00
0.000000000000000000e+00
0.000000000000000000e+00
0.000000000000000000e+00
0.000000000000000000e+00
0.000000000000000000e+00
0.000000000000000000e+00
0.000000000000000000e+00
0.000000000000000000e+00
0.000000000000000000e+00
0.000000000000000000e+00
0.000000000000000000e+00
0.000000000000000000e+00
0.000000000000000000e+00
0.000000000000000000e+00
0.000000000000000000e+00
0.000000000000000000e+00
0.000000000000000000e+00
0.000000000000000000e+00
0.000000000000000000e+00
0.000000000000000000e+00
0.000000000000000000e+00
0.000000000000000000e+00
0.000000000000000000e+00
0.000000000000000000e+00
0.000000000000000000e+00
0.000000000000000000e+00
0.000000000000000000e+00
0.000000000000000000e+00
0.000000000000000000e+00
0.000000000000000000e+00
0.000000000000000000e+00
0.000000000000000000e+00
0.000000000000000000e+00
0.000000000000000000e+00
0.000000000000000000e+00
0.000000000000000000e+00
0.000000000000000000e+00
0.000000000000000000e+00
0.000000000000000000e+00
0.000000000000000000e+00
0.000000000000000000e+00
0.000000000000000000e+00
0.000000000000000000e+00
0.000000000000000000e+00
0.000000000000000000e+00
0.000000000000000000e+00
0.000000000000000000e+00
0.000000000000000000e+00
0.000000000000000000e+00
0.000000000000000000e+00
0.000000000000000000e+00
0.000000000000000000e+00
0.000000000000000000e+00
0.000000000000000000e+00
0.000000000000000000e+00
0.000000000000000000e+00
0.000000000000000000e+00
0.000000000000000000e+00
0.000000000000000000e+00
0.000000000000000000e+00
0.000000000000000000e+00
0.000000000000000000e+00
0.000000000000000000e+00
0.000000000000000000e+00
0.000000000000000000e+00
0.000000000000000000e+00
0.000000000000000000e+00
0.000000000000000000e+00
0.000000000000000000e+00
0.000000000000000000e+00
0.000000000000000000e+00
0.000000000000000000e+00
0.000000000000000000e+00
0.000000000000000000e+00
0.000000000000000000e+00
0.000000000000000000e+00
0.000000000000000000e+00
0.000000000000000000e+00
0.000000000000000000e+00
0.000000000000000000e+00
0.000000000000000000e+00
0.000000000000000000e+00
0.000000000000000000e+00
0.000000000000000000e+00
0.000000000000000000e+00
0.000000000000000000e+00
0.000000000000000000e+00
0.000000000000000000e+00
0.000000000000000000e+00
0.000000000000000000e+00
0.000000000000000000e+00
0.000000000000000000e+00
0.000000000000000000e+00
0.000000000000000000e+00
0.000000000000000000e+00
0.000000000000000000e+00
0.000000000000000000e+00
0.000000000000000000e+00
0.000000000000000000e+00
0.000000000000000000e+00
0.000000000000000000e+00
0.000000000000000000e+00
0.000000000000000000e+00
0.000000000000000000e+00
0.000000000000000000e+00
0.000000000000000000e+00
0.000000000000000000e+00
0.000000000000000000e+00
0.000000000000000000e+00
0.000000000000000000e+00
0.000000000000000000e+00
0.000000000000000000e+00
0.000000000000000000e+00
0.000000000000000000e+00
0.000000000000000000e+00
0.000000000000000000e+00
0.000000000000000000e+00
0.000000000000000000e+00
0.000000000000000000e+00
0.000000000000000000e+00
0.000000000000000000e+00
0.000000000000000000e+00
0.000000000000000000e+00
0.000000000000000000e+00
0.000000000000000000e+00
0.000000000000000000e+00
0.000000000000000000e+00
0.000000000000000000e+00
0.000000000000000000e+00
0.000000000000000000e+00
0.000000000000000000e+00
0.000000000000000000e+00
0.000000000000000000e+00
0.000000000000000000e+00
0.000000000000000000e+00
0.000000000000000000e+00
0.000000000000000000e+00
0.000000000000000000e+00
0.000000000000000000e+00
0.000000000000000000e+00
0.000000000000000000e+00
0.000000000000000000e+00
0.000000000000000000e+00
0.000000000000000000e+00
0.000000000000000000e+00
0.000000000000000000e+00
0.000000000000000000e+00
0.000000000000000000e+00
0.000000000000000000e+00
0.000000000000000000e+00
0.000000000000000000e+00
0.000000000000000000e+00
0.000000000000000000e+00
0.000000000000000000e+00
0.000000000000000000e+00
0.000000000000000000e+00
0.000000000000000000e+00
0.000000000000000000e+00
0.000000000000000000e+00
0.000000000000000000e+00
0.000000000000000000e+00
0.000000000000000000e+00
0.000000000000000000e+00
0.000000000000000000e+00
0.000000000000000000e+00
0.000000000000000000e+00
0.000000000000000000e+00
0.000000000000000000e+00
0.000000000000000000e+00
0.000000000000000000e+00
0.000000000000000000e+00
0.000000000000000000e+00
0.000000000000000000e+00
0.000000000000000000e+00
0.000000000000000000e+00
0.000000000000000000e+00
0.000000000000000000e+00
0.000000000000000000e+00
0.000000000000000000e+00
0.000000000000000000e+00
0.000000000000000000e+00
0.000000000000000000e+00
0.000000000000000000e+00
0.000000000000000000e+00
0.000000000000000000e+00
0.000000000000000000e+00
0.000000000000000000e+00
0.000000000000000000e+00
0.000000000000000000e+00
0.000000000000000000e+00
0.000000000000000000e+00
0.000000000000000000e+00
0.000000000000000000e+00
0.000000000000000000e+00
0.000000000000000000e+00
0.000000000000000000e+00
0.000000000000000000e+00
0.000000000000000000e+00
0.000000000000000000e+00
0.000000000000000000e+00
0.000000000000000000e+00
0.000000000000000000e+00
0.000000000000000000e+00
0.000000000000000000e+00
0.000000000000000000e+00
0.000000000000000000e+00
0.000000000000000000e+00
-1.192092895507812500e-07
1.192092895507812500e-07
-1.192092895507812500e-07
2.384185791015625000e-07
-2.384185791015625000e-07
3.576278686523437500e-07
-4.768371582031250000e-07
5.960464477539062500e-07
-7.152557373046875000e-07
8.344650268554687500e-07
-1.072883605957031250e-06
1.430511474609375000e-06
-2.145767211914062500e-06
3.695487976074218750e-06
-1.478195190429687500e-05
-6.175041198730468750e-05
-7.700920104980468750e-05
-9.727478027343750000e-05
-1.131296157836914062e-04
-1.312494277954101562e-04
-1.484155654907226562e-04
-1.643896102905273438e-04
-1.808404922485351562e-04
-1.940727233886718750e-04
-2.040863037109375000e-04
-2.214908599853515625e-04
-2.436637878417968750e-04
-2.707242965698242188e-04
-2.856254577636718750e-04
-3.008842468261718750e-04
-3.141164779663085938e-04
-3.294944763183593750e-04
-3.436803817749023438e-04
-3.724098205566406250e-04
-3.876686096191406250e-04
-4.032850265502929688e-04
-4.103183746337890625e-04
-4.081726074218750000e-04
-4.199743270874023438e-04
-4.462003707885742188e-04
-4.824399948120117188e-04
-4.884004592895507812e-04
-5.065202713012695312e-04
-5.224943161010742188e-04
-5.390644073486328125e-04
-5.600452423095703125e-04
-5.563497543334960938e-04
-5.968809127807617188e-04
-6.097555160522460938e-04
-6.234645843505859375e-04
-6.402730941772460938e-04
-6.560087203979492188e-04
-6.597042083740234375e-04
-6.891489028930664062e-04
-7.091760635375976562e-04
-7.170438766479492188e-04
-7.336139678955078125e-04
-7.368326187133789062e-04
-7.640123367309570312e-04
-7.630586624145507812e-04
-7.759332656860351562e-04
-7.600784301757812500e-04
-8.140802383422851562e-04
-8.226633071899414062e-04
-8.249282836914062500e-04
-8.243322372436523438e-04
-7.274150848388671875e-04
-7.450580596923828125e-04
-7.427930831909179688e-04
-7.517337799072265625e-04
-7.565021514892578125e-04
-7.719993591308593750e-04
-7.926225662231445312e-04
-8.069276809692382812e-04
-8.319616317749023438e-04
-8.385181427001953125e-04
-8.475780487060546875e-04
-8.462667465209960938e-04
-8.863210678100585938e-04
-8.838176727294921875e-04
-8.597373962402343750e-04
-9.243488311767578125e-04
-8.019208908081054688e-04
-7.365942001342773438e-04
-7.489919662475585938e-04
-7.575750350952148438e-04
-7.780790328979492188e-04
-7.450580596923828125e-04
-7.761716842651367188e-04
-7.562637329101562500e-04
-7.755756378173828125e-04
-7.688999176025390625e-04
-7.742643356323242188e-04
-7.652044296264648438e-04
-7.706880569458007812e-04
-8.211135864257812500e-04
-8.088350296020507812e-04
-8.438825607299804688e-04
-7.369518280029296875e-04
-5.980730056762695312e-04
-5.981922149658203125e-04
-6.166696548461914062e-04
-6.057024002075195312e-04
-5.899667739868164062e-04
-6.190538406372070312e-04
-5.990266799926757812e-04
-5.962848663330078125e-04
-5.884170532226562500e-04
-5.694627761840820312e-04
-5.877017974853515625e-04
-5.664825439453125000e-04
-5.977153778076171875e-04
-5.761384963989257812e-04
-5.761384963989257812e-04
-5.360841751098632812e-04
-3.451108932495117188e-04
-3.215074539184570312e-04
-2.954006195068359375e-04
-3.137588500976562500e-04
-3.491640090942382812e-04
-3.242492675781250000e-04
-3.182888031005859375e-04
-3.319978713989257812e-04
-3.110170364379882812e-04
-2.894401550292968750e-04
-3.389120101928710938e-04
-3.110170364379882812e-04
-2.756118774414062500e-04
-2.909898757934570312e-04
-2.955198287963867188e-04
-3.137588500976562500e-04
-1.975297927856445312e-04
-9.226799011230468750e-05
-7.247924804687500000e-05
-1.418590545654296875e-05
-6.031990051269531250e-05
-7.307529449462890625e-05
-3.814697265625000000e-06
-3.099441528320312500e-05
-5.304813385009765625e-05
-6.103515625000000000e-05
-6.079673767089843750e-05
-4.744529724121093750e-05
-3.504753112792968750e-05
-3.278255462646484375e-05
-4.112720489501953125e-05
-8.797645568847656250e-05
-2.133846282958984375e-05
1.560449600219726562e-04
2.037286758422851562e-04
1.782178878784179688e-04
2.130270004272460938e-04
1.155138015747070312e-04
1.443624496459960938e-04
1.163482666015625000e-04
1.429319381713867188e-04
1.794099807739257812e-04
1.766681671142578125e-04
1.895427703857421875e-04
1.575946807861328125e-04
1.982450485229492188e-04
1.575946807861328125e-04
2.584457397460937500e-04
1.869201660156250000e-04
3.098249435424804688e-04
4.463195800781250000e-04
3.874301910400390625e-04
4.212856292724609375e-04
4.565715789794921875e-04
3.769397735595703125e-04
4.550218582153320312e-04
4.048347473144531250e-04
4.314184188842773438e-04
4.343986511230468750e-04
4.596710205078125000e-04
4.230737686157226562e-04
4.718303680419921875e-04
4.627704620361328125e-04
4.047155380249023438e-04
4.545450210571289062e-04
5.156993865966796875e-04
7.321834564208984375e-04
6.345510482788085938e-04
6.841421127319335938e-04
6.619691848754882812e-04
6.971359252929687500e-04
6.471872329711914062e-04
6.613731384277343750e-04
6.538629531860351562e-04
6.660223007202148438e-04
6.642341613769531250e-04
6.407499313354492188e-04
6.932020187377929688e-04
6.979703903198242188e-04
7.401704788208007812e-04
7.414817810058593750e-04
7.098913192749023438e-04
8.392333984375000000e-04
9.027719497680664062e-04
8.473396301269531250e-04
9.415149688720703125e-04
8.136034011840820312e-04
8.807182312011718750e-04
8.704662322998046875e-04
8.825063705444335938e-04
9.145736694335937500e-04
8.703470230102539062e-04
8.820295333862304688e-04
8.639097213745117188e-04
9.182691574096679688e-04
8.230209350585937500e-04
9.363889694213867188e-04
8.876323699951171875e-04
9.925365447998046875e-04
1.094937324523925781e-03
1.103520393371582031e-03
1.134991645812988281e-03
1.152396202087402344e-03
1.084208488464355469e-03
1.097559928894042969e-03
1.071333885192871094e-03
1.068711280822753906e-03
1.094937324523925781e-03
1.111745834350585938e-03
1.114726066589355469e-03
1.088619232177734375e-03
1.078367233276367188e-03
1.094341278076171875e-03
1.096606254577636719e-03
1.106142997741699219e-03
1.226782798767089844e-03
1.230835914611816406e-03
1.232266426086425781e-03
1.199126243591308594e-03
1.237988471984863281e-03
1.170039176940917969e-03
1.192212104797363281e-03
1.189827919006347656e-03
1.178622245788574219e-03
1.196146011352539062e-03
1.232147216796875000e-03
1.170754432678222656e-03
1.201748847961425781e-03
1.197099685668945312e-03
1.214146614074707031e-03
1.187086105346679688e-03
1.375675201416015625e-03
1.443743705749511719e-03
1.390933990478515625e-03
1.424908638000488281e-03
1.420378684997558594e-03
1.445889472961425781e-03
1.414537429809570312e-03
1.413106918334960938e-03
1.396894454956054688e-03
1.389384269714355469e-03
1.401543617248535156e-03
1.413702964782714844e-03
1.411437988281250000e-03
1.411557197570800781e-03
1.425147056579589844e-03
1.388430595397949219e-03
1.482486724853515625e-03
1.639127731323242188e-03
1.609444618225097656e-03
1.637339591979980469e-03
1.601934432983398438e-03
1.598715782165527344e-03
1.600623130798339844e-03
1.621127128601074219e-03
1.694202423095703125e-03
1.717090606689453125e-03
1.736998558044433594e-03
1.761317253112792969e-03
1.820802688598632812e-03
1.897692680358886719e-03
1.925230026245117188e-03
1.990199089050292969e-03
2.010226249694824219e-03
2.262711524963378906e-03
2.320289611816406250e-03
2.410173416137695312e-03
2.462983131408691406e-03
2.502441406250000000e-03
2.530574798583984375e-03
2.591252326965332031e-03
2.640604972839355469e-03
2.693772315979003906e-03
2.751827239990234375e-03
2.847552299499511719e-03
2.819299697875976562e-03
2.907037734985351562e-03
2.921342849731445312e-03
3.007888793945312500e-03
2.991318702697753906e-03
3.165125846862792969e-03
3.318786621093750000e-03
3.341794013977050781e-03
3.383994102478027344e-03
3.379821777343750000e-03
3.452658653259277344e-03
3.434062004089355469e-03
3.531694412231445312e-03
3.581047058105468750e-03
3.575086593627929688e-03
3.609538078308105469e-03
3.714680671691894531e-03
3.747344017028808594e-03
3.761172294616699219e-03
3.751277923583984375e-03
3.776192665100097656e-03
3.816723823547363281e-03
3.953099250793457031e-03
3.968119621276855469e-03
3.901124000549316406e-03
3.902435302734375000e-03
3.887772560119628906e-03
3.919482231140136719e-03
3.925800323486328125e-03
3.855943679809570312e-03
3.933191299438476562e-03
3.928184509277343750e-03
3.955483436584472656e-03
3.954172134399414062e-03
3.976821899414062500e-03
3.945231437683105469e-03
3.989338874816894531e-03
3.944516181945800781e-03
4.153966903686523438e-03
4.278898239135742188e-03
4.277706146240234375e-03
4.232525825500488281e-03
4.319787025451660156e-03
4.270672798156738281e-03
4.365921020507812500e-03
4.357337951660156250e-03
4.449963569641113281e-03
4.474878311157226562e-03
4.520416259765625000e-03
4.533052444458007812e-03
4.549860954284667969e-03
4.676818847656250000e-03
4.750370979309082031e-03
4.767894744873046875e-03
4.850745201110839844e-03
5.085825920104980469e-03
5.054593086242675781e-03
5.218029022216796875e-03
5.167007446289062500e-03
5.247950553894042969e-03
5.197882652282714844e-03
5.218625068664550781e-03
5.203962326049804688e-03
5.220770835876464844e-03
5.317330360412597656e-03
5.418062210083007812e-03
5.491375923156738281e-03
5.577087402343750000e-03
5.655765533447265625e-03
5.740523338317871094e-03
5.855917930603027344e-03
6.125092506408691406e-03
6.203770637512207031e-03
6.260156631469726562e-03
6.355404853820800781e-03
6.424665451049804688e-03
6.453633308410644531e-03
6.541013717651367188e-03
6.653547286987304688e-03
6.725549697875976562e-03
6.830930709838867188e-03
6.912708282470703125e-03
6.919741630554199219e-03
7.099628448486328125e-03
7.121920585632324219e-03
7.306098937988281250e-03
7.293581962585449219e-03
7.725596427917480469e-03
8.029699325561523438e-03
8.122682571411132812e-03
8.173108100891113281e-03
8.246541023254394531e-03
8.366942405700683594e-03
8.430123329162597656e-03
8.515119552612304688e-03
8.621573448181152344e-03
8.679151535034179688e-03
8.766055107116699219e-03
8.887529373168945312e-03
8.893013000488281250e-03
8.996725082397460938e-03
8.964657783508300781e-03
9.075760841369628906e-03
9.106516838073730469e-03
9.459853172302246094e-03
9.485125541687011719e-03
9.536862373352050781e-03
9.535312652587890625e-03
9.623646736145019531e-03
9.599447250366210938e-03
9.677290916442871094e-03
9.670019149780273438e-03
9.700655937194824219e-03
9.731769561767578125e-03
9.706139564514160156e-03
9.723305702209472656e-03
9.752392768859863281e-03
9.788751602172851562e-03
9.797692298889160156e-03
9.832620620727539062e-03
9.989023208618164062e-03
1.003265380859375000e-02
9.997487068176269531e-03
9.993672370910644531e-03
9.982228279113769531e-03
1.000332832336425781e-02
9.968757629394531250e-03
1.003015041351318359e-02
1.003015041351318359e-02
9.991884231567382812e-03
9.996294975280761719e-03
9.991407394409179688e-03
1.003825664520263672e-02
1.003277301788330078e-02
1.005780696868896484e-02
1.004970073699951172e-02
1.020479202270507812e-02
1.039600372314453125e-02
1.035201549530029297e-02
1.042580604553222656e-02
1.042819023132324219e-02
1.048052310943603516e-02
1.045739650726318359e-02
1.048040390014648438e-02
1.043844223022460938e-02
1.046979427337646484e-02
1.044309139251708984e-02
1.037454605102539062e-02
1.038050651550292969e-02
1.031911373138427734e-02
1.030731201171875000e-02
1.032447814941406250e-02
1.023304462432861328e-02
1.038300991058349609e-02
1.037859916687011719e-02
1.030182838439941406e-02
1.025629043579101562e-02
1.015567779541015625e-02
1.008164882659912109e-02
1.003038883209228516e-02
9.928703308105468750e-03
9.834408760070800781e-03
9.740352630615234375e-03
9.611487388610839844e-03
9.552240371704101562e-03
9.435296058654785156e-03
9.358286857604980469e-03
9.291768074035644531e-03
9.213209152221679688e-03
9.289860725402832031e-03
9.374022483825683594e-03
9.296298027038574219e-03
9.187698364257812500e-03
9.123325347900390625e-03
9.060740470886230469e-03
9.020447731018066406e-03
8.929371833801269531e-03
8.853197097778320312e-03
8.802771568298339844e-03
8.742570877075195312e-03
8.738398551940917969e-03
8.652806282043457031e-03
8.574485778808593750e-03
8.494615554809570312e-03
8.406877517700195312e-03
8.421897888183593750e-03
8.555769920349121094e-03
8.485317230224609375e-03
8.425354957580566406e-03
8.313059806823730469e-03
8.229970932006835938e-03
8.190870285034179688e-03
8.111715316772460938e-03
8.069753646850585938e-03
7.963418960571289062e-03
7.881641387939453125e-03
7.789850234985351562e-03
7.669210433959960938e-03
7.599830627441406250e-03
7.502317428588867188e-03
7.410287857055664062e-03
7.259011268615722656e-03
7.387042045593261719e-03
7.355332374572753906e-03
7.245182991027832031e-03
7.124662399291992188e-03
7.009744644165039062e-03
6.977915763854980469e-03
6.846189498901367188e-03
6.770849227905273438e-03
6.624817848205566406e-03
6.453275680541992188e-03
6.211161613464355469e-03
6.081700325012207031e-03
5.971431732177734375e-03
5.821347236633300781e-03
5.711078643798828125e-03
5.572080612182617188e-03
5.497813224792480469e-03
5.498170852661132812e-03
5.308151245117187500e-03
5.180358886718750000e-03
5.013704299926757812e-03
4.863500595092773438e-03
4.812717437744140625e-03
4.631161689758300781e-03
4.557728767395019531e-03
4.389405250549316406e-03
4.208922386169433594e-03
4.095315933227539062e-03
3.911852836608886719e-03
3.848671913146972656e-03
3.725528717041015625e-03
3.563284873962402344e-03
3.504514694213867188e-03
3.581047058105468750e-03
3.644227981567382812e-03
3.597140312194824219e-03
3.572583198547363281e-03
3.580927848815917969e-03
3.573656082153320312e-03
3.514051437377929688e-03
3.522992134094238281e-03
3.498911857604980469e-03
3.532409667968750000e-03
3.490686416625976562e-03
3.464102745056152344e-03
3.479480743408203125e-03
3.434062004089355469e-03
3.459334373474121094e-03
3.415226936340332031e-03
3.504633903503417969e-03
3.558993339538574219e-03
3.522634506225585938e-03
3.550052642822265625e-03
3.526091575622558594e-03
3.474354743957519531e-03
3.467917442321777344e-03
3.481507301330566406e-03
3.475785255432128906e-03
3.457069396972656250e-03
3.437399864196777344e-03
3.396630287170410156e-03
3.402590751647949219e-03
3.421545028686523438e-03
3.373980522155761719e-03
3.357648849487304688e-03
3.388166427612304688e-03
3.478765487670898438e-03
3.501892089843750000e-03
3.480315208435058594e-03
3.471970558166503906e-03
3.483653068542480469e-03
3.439664840698242188e-03
3.397941589355468750e-03
3.429532051086425781e-03
3.425240516662597656e-03
3.421425819396972656e-03
3.397822380065917969e-03
3.377437591552734375e-03
3.393173217773437500e-03
3.350019454956054688e-03
3.365755081176757812e-03
3.359675407409667969e-03
3.292441368103027344e-03
3.324389457702636719e-03
3.309011459350585938e-03
3.314137458801269531e-03
3.284573554992675781e-03
3.220319747924804688e-03
3.256320953369140625e-03
3.231167793273925781e-03
3.250479698181152344e-03
3.231763839721679688e-03
3.256082534790039062e-03
3.202438354492187500e-03
3.183484077453613281e-03
3.213524818420410156e-03
3.161072731018066406e-03
3.151655197143554688e-03
3.196120262145996094e-03
3.333568572998046875e-03
3.299832344055175781e-03
3.244996070861816406e-03
3.219366073608398438e-03
3.234267234802246094e-03
3.220915794372558594e-03
3.206372261047363281e-03
3.228545188903808594e-03
3.179669380187988281e-03
3.144502639770507812e-03
3.118395805358886719e-03
3.141641616821289062e-03
3.117680549621582031e-03
3.134846687316894531e-03
3.143906593322753906e-03
3.091692924499511719e-03
3.142714500427246094e-03
3.069043159484863281e-03
3.066062927246093750e-03
3.100991249084472656e-03
3.062725067138671875e-03
3.100395202636718750e-03
3.049969673156738281e-03
3.039240837097167969e-03
3.027081489562988281e-03
3.042340278625488281e-03
3.035783767700195312e-03
2.979874610900878906e-03
2.958297729492187500e-03
2.946734428405761719e-03
2.930045127868652344e-03
2.913475036621093750e-03
3.004670143127441406e-03
3.070473670959472656e-03
3.031134605407714844e-03
2.993822097778320312e-03
3.041625022888183594e-03
2.970695495605468750e-03
2.935409545898437500e-03
3.027319908142089844e-03
2.999544143676757812e-03
2.990007400512695312e-03
3.025650978088378906e-03
2.965211868286132812e-03
2.971649169921875000e-03
2.969503402709960938e-03
2.979636192321777344e-03
2.931714057922363281e-03
2.907752990722656250e-03
2.903819084167480469e-03
2.850294113159179688e-03
2.838492393493652344e-03
2.873182296752929688e-03
2.800226211547851562e-03
2.761006355285644531e-03
2.840161323547363281e-03
2.809405326843261719e-03
2.844214439392089844e-03
2.850413322448730469e-03
2.784967422485351562e-03
2.734899520874023438e-03
2.768397331237792969e-03
2.738714218139648438e-03
2.732634544372558594e-03
2.746701240539550781e-03
2.837061882019042969e-03
2.860307693481445312e-03
2.833724021911621094e-03
2.789139747619628906e-03
2.816677093505859375e-03
2.849936485290527344e-03
2.780318260192871094e-03
2.761363983154296875e-03
2.780675888061523438e-03
2.758502960205078125e-03
2.753019332885742188e-03
2.753376960754394531e-03
2.780914306640625000e-03
2.733469009399414062e-03
2.692341804504394531e-03
2.739906311035156250e-03
2.710223197937011719e-03
2.701997756958007812e-03
2.714395523071289062e-03
2.717852592468261719e-03
2.660512924194335938e-03
2.683877944946289062e-03
2.668380737304687500e-03
2.620100975036621094e-03
2.596497535705566406e-03
2.596855163574218750e-03
2.607583999633789062e-03
2.559900283813476562e-03
2.565026283264160156e-03
2.532601356506347656e-03
2.561569213867187500e-03
2.553820610046386719e-03
2.566337585449218750e-03
2.712130546569824219e-03
2.675652503967285156e-03
2.664208412170410156e-03
2.654910087585449219e-03
2.658009529113769531e-03
2.635359764099121094e-03
2.590417861938476562e-03
2.638578414916992188e-03
2.581596374511718750e-03
2.544164657592773438e-03
2.561807632446289062e-03
2.566933631896972656e-03
2.510070800781250000e-03
2.545356750488281250e-03
2.528667449951171875e-03
2.515196800231933594e-03
2.564072608947753906e-03
2.488374710083007812e-03
2.513647079467773438e-03
2.501130104064941406e-03
2.439141273498535156e-03
2.371311187744140625e-03
2.474784851074218750e-03
2.465724945068359375e-03
2.416253089904785156e-03
2.405762672424316406e-03
2.418041229248046875e-03
2.445220947265625000e-03
2.394676208496093750e-03
2.389430999755859375e-03
2.418875694274902344e-03
2.391219139099121094e-03
2.326250076293945312e-03
2.297520637512207031e-03
2.371072769165039062e-03
2.336025238037109375e-03
2.339959144592285156e-03
2.315640449523925781e-03
2.321124076843261719e-03
2.328515052795410156e-03
2.248644828796386719e-03
2.308726310729980469e-03
2.220630645751953125e-03
2.260088920593261719e-03
2.310395240783691406e-03
2.302527427673339844e-03
2.148032188415527344e-03
2.195596694946289062e-03
2.204060554504394531e-03
2.352952957153320312e-03
2.303600311279296875e-03
2.223730087280273438e-03
2.335309982299804688e-03
2.275109291076660156e-03
2.270221710205078125e-03
2.206087112426757812e-03
2.289175987243652344e-03
2.229690551757812500e-03
2.157926559448242188e-03
2.147197723388671875e-03
2.238392829895019531e-03
2.352595329284667969e-03
2.119064331054687500e-03
2.100110054016113281e-03
2.139568328857421875e-03
2.303600311279296875e-03
2.282738685607910156e-03
2.050280570983886719e-03
2.065420150756835938e-03
2.097368240356445312e-03
2.301335334777832031e-03
2.148747444152832031e-03
2.111792564392089844e-03
1.984000205993652344e-03
2.138495445251464844e-03
2.129316329956054688e-03
2.104878425598144531e-03
2.106308937072753906e-03
1.982927322387695312e-03
2.029895782470703125e-03
1.931786537170410156e-03
2.261757850646972656e-03
2.141952514648437500e-03
1.939654350280761719e-03
1.766681671142578125e-03
2.062082290649414062e-03
2.354741096496582031e-03
2.037763595581054688e-03
1.711726188659667969e-03
1.762151718139648438e-03
2.171754837036132812e-03
2.229571342468261719e-03
1.882433891296386719e-03
1.635074615478515625e-03
1.923441886901855469e-03
2.083659172058105469e-03
2.012252807617187500e-03
1.856684684753417969e-03
1.908183097839355469e-03
1.801729202270507812e-03
1.833677291870117188e-03
1.886129379272460938e-03
2.121329307556152344e-03
1.850128173828125000e-03
1.552104949951171875e-03
1.622080802917480469e-03
1.964330673217773438e-03
2.334833145141601562e-03
1.768469810485839844e-03
1.499295234680175781e-03
1.251459121704101562e-03
2.340674400329589844e-03
2.324104309082031250e-03
1.911163330078125000e-03
7.364749908447265625e-04
1.938223838806152344e-03
3.613233566284179688e-03
3.489255905151367188e-03
1.908779144287109375e-03
4.545450210571289062e-04
3.044128417968750000e-03
3.654122352600097656e-03
3.270268440246582031e-03
6.514787673950195312e-04
1.388311386108398438e-03
2.858281135559082031e-03
3.147602081298828125e-03
1.899361610412597656e-03
6.130933761596679688e-04
1.577734947204589844e-03
2.090334892272949219e-03
2.195239067077636719e-03
9.999275207519531250e-04
1.139044761657714844e-03
1.337289810180664062e-03
1.981139183044433594e-03
1.652598381042480469e-03
1.268863677978515625e-03
1.258969306945800781e-03
1.438021659851074219e-03
1.692056655883789062e-03
1.441001892089843750e-03
1.426577568054199219e-03
1.277923583984375000e-03
1.417398452758789062e-03
1.393556594848632812e-03
1.448869705200195312e-03
1.589536666870117188e-03
1.334667205810546875e-03
1.206994056701660156e-03
1.314282417297363281e-03
1.602292060852050781e-03
1.574754714965820312e-03
1.152157783508300781e-03
1.145958900451660156e-03
1.391768455505371094e-03
1.600384712219238281e-03
1.270651817321777344e-03
1.162290573120117188e-03
1.270055770874023438e-03
1.432538032531738281e-03
1.409053802490234375e-03
1.250982284545898438e-03
1.272320747375488281e-03
1.312017440795898438e-03
1.396179199218750000e-03
1.260876655578613281e-03
1.287460327148437500e-03
1.299977302551269531e-03
1.262784004211425781e-03
1.185297966003417969e-03
1.213908195495605469e-03
1.268863677978515625e-03
1.317143440246582031e-03
1.107215881347656250e-03
1.166582107543945312e-03
1.226782798767089844e-03
1.353859901428222656e-03
1.155376434326171875e-03
1.103878021240234375e-03
1.110434532165527344e-03
1.096844673156738281e-03
1.108407974243164062e-03
9.280443191528320312e-04
1.098513603210449219e-03
1.045703887939453125e-03
1.147150993347167969e-03
9.007453918457031250e-04
1.040458679199218750e-03
1.011610031127929688e-03
1.162052154541015625e-03
9.536743164062500000e-04
9.113550186157226562e-04
1.058340072631835938e-03
1.038312911987304688e-03
1.057624816894531250e-03
8.350610733032226562e-04
1.054763793945312500e-03
9.689331054687500000e-04
1.056194305419921875e-03
9.315013885498046875e-04
1.004099845886230469e-03
9.403228759765625000e-04
1.003384590148925781e-03
9.822845458984375000e-04
9.261369705200195312e-04
9.315013885498046875e-04
8.858442306518554688e-04
1.001477241516113281e-03
8.727312088012695312e-04
9.419918060302734375e-04
8.695125579833984375e-04
9.800195693969726562e-04
8.279085159301757812e-04
7.444620132446289062e-04
7.867813110351562500e-04
7.839202880859375000e-04
7.222890853881835938e-04
7.448196411132812500e-04
7.684230804443359375e-04
7.511377334594726562e-04
7.169246673583984375e-04
7.398128509521484375e-04
7.487535476684570312e-04
7.015466690063476562e-04
7.339715957641601562e-04
6.427764892578125000e-04
7.327795028686523438e-04
6.909370422363281250e-04
6.892681121826171875e-04
6.880760192871093750e-04
7.801055908203125000e-04
7.513761520385742188e-04
6.324052810668945312e-04
6.490945816040039062e-04
6.816387176513671875e-04
7.336139678955078125e-04
6.153583526611328125e-04
5.537271499633789062e-04
6.567239761352539062e-04
6.817579269409179688e-04
6.673336029052734375e-04
5.995035171508789062e-04
5.966424942016601562e-04
6.278753280639648438e-04
6.636381149291992188e-04
5.155801773071289062e-04
4.342794418334960938e-04
4.506111145019531250e-04
5.719661712646484375e-04
4.819631576538085938e-04
3.871917724609375000e-04
4.016160964965820312e-04
4.851818084716796875e-04
4.843473434448242188e-04
4.173517227172851562e-04
4.098415374755859375e-04
4.401206970214843750e-04
4.404783248901367188e-04
4.308223724365234375e-04
4.237890243530273438e-04
4.023313522338867188e-04
4.416704177856445312e-04
4.186630249023437500e-04
4.469156265258789062e-04
4.353523254394531250e-04
3.982782363891601562e-04
3.895759582519531250e-04
4.010200500488281250e-04
4.366636276245117188e-04
3.964900970458984375e-04
3.859996795654296875e-04
3.799200057983398438e-04
3.433227539062500000e-04
3.628730773925781250e-04
3.672838211059570312e-04
3.060102462768554688e-04
3.895759582519531250e-04
3.696680068969726562e-04
2.558231353759765625e-04
2.213716506958007812e-04
1.804828643798828125e-04
2.428293228149414062e-04
2.288818359375000000e-04
1.935958862304687500e-04
1.564025878906250000e-04
1.875162124633789062e-04
2.319812774658203125e-04
2.194643020629882812e-04
1.653432846069335938e-04
1.438856124877929688e-04
2.136230468750000000e-04
2.207756042480468750e-04
2.071857452392578125e-04
1.168251037597656250e-04
1.671314239501953125e-04
2.667903900146484375e-04
2.340078353881835938e-04
9.870529174804687500e-05
1.391172409057617188e-04
1.660585403442382812e-04
1.915693283081054688e-04
1.940727233886718750e-04
8.237361907958984375e-05
8.594989776611328125e-05
1.484155654907226562e-04
2.188682556152343750e-04
1.306533813476562500e-04
8.499622344970703125e-05
1.027584075927734375e-04
1.984834671020507812e-04
1.314878463745117188e-04
-2.920627593994140625e-05
-7.629394531250000000e-06
-4.053115844726562500e-05
1.990795135498046875e-05
3.230571746826171875e-05
-1.823902130126953125e-05
-5.888938903808593750e-05
-3.921985626220703125e-05
1.907348632812500000e-06
-4.625320434570312500e-05
-4.100799560546875000e-05
-3.647804260253906250e-05
-3.993511199951171875e-05
1.442432403564453125e-05
-2.908706665039062500e-05
-2.586841583251953125e-05
-1.318454742431640625e-04
-1.875162124633789062e-04
-2.254247665405273438e-04
-2.508163452148437500e-04
-2.057552337646484375e-04
-2.087354660034179688e-04
-2.460479736328125000e-04
-2.534389495849609375e-04
-1.840591430664062500e-04
-1.833438873291015625e-04
-1.628398895263671875e-04
-2.434253692626953125e-04
-2.628564834594726562e-04
-2.094507217407226562e-04
-1.935958862304687500e-04
-2.008676528930664062e-04
-3.820657730102539062e-04
-3.708600997924804688e-04
-3.287792205810546875e-04
-3.006458282470703125e-04
-3.814697265625000000e-04
-4.109144210815429688e-04
-3.945827484130859375e-04
-2.931356430053710938e-04
-3.178119659423828125e-04
-3.869533538818359375e-04
-3.995895385742187500e-04
-3.889799118041992188e-04
-3.226995468139648438e-04
-3.836154937744140625e-04
-3.826618194580078125e-04
-3.957748413085937500e-04
-3.966093063354492188e-04
-6.117820739746093750e-04
-5.524158477783203125e-04
-6.341934204101562500e-04
-6.521940231323242188e-04
-6.511211395263671875e-04
-6.670951843261718750e-04
-5.977153778076171875e-04
-6.352663040161132812e-04
-6.284713745117187500e-04
-6.241798400878906250e-04
-5.794763565063476562e-04
-5.719661712646484375e-04
-5.849599838256835938e-04
-6.574392318725585938e-04
-6.235837936401367188e-04
-5.557537078857421875e-04
-7.462501525878906250e-04
-9.101629257202148438e-04
-9.107589721679687500e-04
-8.696317672729492188e-04
-9.119510650634765625e-04
-9.760856628417968750e-04
-9.261369705200195312e-04
-8.461475372314453125e-04
-8.273124694824218750e-04
-8.827447891235351562e-04
-8.797645568847656250e-04
-8.393526077270507812e-04
-8.419752120971679688e-04
-8.953809738159179688e-04
-1.014351844787597656e-03
-8.689165115356445312e-04
-8.581876754760742188e-04
-1.107096672058105469e-03
-1.203417778015136719e-03
-1.229286193847656250e-03
-1.083254814147949219e-03
-1.094698905944824219e-03
-1.140832901000976562e-03
-1.122593879699707031e-03
-1.119256019592285156e-03
-1.022338867187500000e-03
-1.071214675903320312e-03
-1.097440719604492188e-03
-1.078605651855468750e-03
-1.058101654052734375e-03
-1.073837280273437500e-03
-1.166224479675292969e-03
-1.099467277526855469e-03
-1.314640045166015625e-03
-1.388788223266601562e-03
-1.380085945129394531e-03
-1.383781433105468750e-03
-1.336574554443359375e-03
-1.373767852783203125e-03
-1.367330551147460938e-03
-1.328349113464355469e-03
-1.272439956665039062e-03
-1.367807388305664062e-03
-1.394391059875488281e-03
-1.411437988281250000e-03
-1.395702362060546875e-03
-1.313686370849609375e-03
-1.394987106323242188e-03
-1.355290412902832031e-03
-1.480340957641601562e-03
-1.529455184936523438e-03
-1.583337783813476562e-03
-1.657724380493164062e-03
-1.588821411132812500e-03
-1.593112945556640625e-03
-1.601815223693847656e-03
-1.645207405090332031e-03
-1.590251922607421875e-03
-1.538395881652832031e-03
-1.553773880004882812e-03
-1.646399497985839844e-03
-1.688003540039062500e-03
-1.534461975097656250e-03
-1.529932022094726562e-03
-1.601815223693847656e-03
-1.694083213806152344e-03
-1.837849617004394531e-03
-1.800179481506347656e-03
-1.792073249816894531e-03
-1.867175102233886719e-03
-1.810550689697265625e-03
-1.710891723632812500e-03
-1.768350601196289062e-03
-1.878976821899414062e-03
-1.842260360717773438e-03
-1.729488372802734375e-03
-1.745581626892089844e-03
-1.751899719238281250e-03
-1.859068870544433594e-03
-1.844167709350585938e-03
-1.800179481506347656e-03
-1.761674880981445312e-03
-1.989483833312988281e-03
-2.126574516296386719e-03
-1.992106437683105469e-03
-1.986742019653320312e-03
-1.992940902709960938e-03
-1.986622810363769531e-03
-1.945018768310546875e-03
-1.951098442077636719e-03
-2.014636993408203125e-03
-2.001404762268066406e-03
-1.976013183593750000e-03
-2.020716667175292969e-03
-2.006173133850097656e-03
-1.998543739318847656e-03
-1.923441886901855469e-03
-1.888513565063476562e-03
-2.060055732727050781e-03
-2.279639244079589844e-03
-2.210736274719238281e-03
-2.132892608642578125e-03
-2.211213111877441406e-03
-2.307415008544921875e-03
-2.192735671997070312e-03
-2.167344093322753906e-03
-2.187371253967285156e-03
-2.227783203125000000e-03
-2.253532409667968750e-03
-2.089262008666992188e-03
-2.053380012512207031e-03
-2.159357070922851562e-03
-2.174615859985351562e-03
-2.078175544738769531e-03
-2.102971076965332031e-03
-2.478599548339843750e-03
-2.582907676696777344e-03
-2.584576606750488281e-03
-2.607583999633789062e-03
-2.637028694152832031e-03
-2.719879150390625000e-03
-2.609848976135253906e-03
-2.574324607849121094e-03
-2.631545066833496094e-03
-2.638697624206542969e-03
-2.647638320922851562e-03
-2.588391304016113281e-03
-2.592921257019042969e-03
-2.595782279968261719e-03
-2.660274505615234375e-03
-2.587795257568359375e-03
-2.656817436218261719e-03
-2.849578857421875000e-03
-2.901554107666015625e-03
-2.866029739379882812e-03
-2.864599227905273438e-03
-2.898931503295898438e-03
-2.877593040466308594e-03
-2.909779548645019531e-03
-2.818107604980468750e-03
-2.807617187500000000e-03
-2.830266952514648438e-03
-2.841830253601074219e-03
-2.812862396240234375e-03
-2.842664718627929688e-03
-2.809882164001464844e-03
-2.771615982055664062e-03
-2.811551094055175781e-03
-2.996683120727539062e-03
-3.036499023437500000e-03
-3.044009208679199219e-03
-2.991795539855957031e-03
-2.968192100524902344e-03
-2.996563911437988281e-03
-2.963423728942871094e-03
-2.991080284118652344e-03
-2.978563308715820312e-03
-2.956390380859375000e-03
-2.981781959533691406e-03
-2.951741218566894531e-03
-2.911329269409179688e-03
-2.888321876525878906e-03
-2.879977226257324219e-03
-2.875924110412597656e-03
-3.074407577514648438e-03
-3.183126449584960938e-03
-3.134369850158691406e-03
-3.165006637573242188e-03
-3.124475479125976562e-03
-3.092408180236816406e-03
-3.068208694458007812e-03
-3.071665763854980469e-03
-3.084540367126464844e-03
-3.054499626159667969e-03
-3.048300743103027344e-03
-3.062844276428222656e-03
-3.061771392822265625e-03
-3.042340278625488281e-03
-3.036022186279296875e-03
-3.041386604309082031e-03
-3.097414970397949219e-03
-3.112554550170898438e-03
-3.057003021240234375e-03
-3.157258033752441406e-03
-3.136873245239257812e-03
-3.149747848510742188e-03
-3.127455711364746094e-03
-3.066778182983398438e-03
-3.126025199890136719e-03
-3.101229667663574219e-03
-3.138780593872070312e-03
-3.149986267089843750e-03
-3.096103668212890625e-03
-3.073096275329589844e-03
-3.065586090087890625e-03
-3.064870834350585938e-03
-3.038883209228515625e-03
-3.212451934814453125e-03
-3.299117088317871094e-03
-3.250479698181152344e-03
-3.255009651184082031e-03
-3.251075744628906250e-03
-3.228664398193359375e-03
-3.227710723876953125e-03
-3.235220909118652344e-03
-3.187775611877441406e-03
-3.237485885620117188e-03
-3.217816352844238281e-03
-3.186345100402832031e-03
-3.166079521179199219e-03
-3.146290779113769531e-03
-3.192543983459472656e-03
-3.144383430480957031e-03
-3.240227699279785156e-03
-3.393530845642089844e-03
-3.394365310668945312e-03
-3.402829170227050781e-03
-3.363966941833496094e-03
-3.324151039123535156e-03
-3.424882888793945312e-03
-3.398299217224121094e-03
-3.324985504150390625e-03
-3.334641456604003906e-03
-3.322362899780273438e-03
-3.358364105224609375e-03
-3.339290618896484375e-03
-3.347039222717285156e-03
-3.329515457153320312e-03
-3.322601318359375000e-03
-3.350496292114257812e-03
-3.520369529724121094e-03
-3.497242927551269531e-03
-3.530383110046386719e-03
-3.499388694763183594e-03
-3.467321395874023438e-03
-3.481030464172363281e-03
-3.483057022094726562e-03
-3.464579582214355469e-03
-3.477454185485839844e-03
-3.489851951599121094e-03
-3.471255302429199219e-03
-3.440499305725097656e-03
-3.412127494812011719e-03
-3.400564193725585938e-03
-3.430962562561035156e-03
-3.391504287719726562e-03
-3.575205802917480469e-03
-3.646373748779296875e-03
-3.630161285400390625e-03
-3.681182861328125000e-03
-3.608584403991699219e-03
-3.623843193054199219e-03
-3.610134124755859375e-03
-3.605008125305175781e-03
-3.599643707275390625e-03
-3.554821014404296875e-03
-3.589987754821777344e-03
-3.636837005615234375e-03
-3.583431243896484375e-03
-3.563642501831054688e-03
-3.546595573425292969e-03
-3.579616546630859375e-03
-3.569483757019042969e-03
-3.636002540588378906e-03
-3.638267517089843750e-03
-3.672957420349121094e-03
-3.736734390258789062e-03
-3.595352172851562500e-03
-3.582119941711425781e-03
-3.639578819274902344e-03
-3.584027290344238281e-03
-3.593564033508300781e-03
-3.546357154846191406e-03
-3.549218177795410156e-03
-3.563046455383300781e-03
-3.537058830261230469e-03
-3.499150276184082031e-03
-3.498315811157226562e-03
-3.515243530273437500e-03
-3.753423690795898438e-03
-3.769278526306152344e-03
-3.732919692993164062e-03
-3.710508346557617188e-03
-3.717899322509765625e-03
-3.743290901184082031e-03
-3.670454025268554688e-03
-3.700375556945800781e-03
-3.731608390808105469e-03
-3.673195838928222656e-03
-3.646612167358398438e-03
-3.669381141662597656e-03
-3.669977188110351562e-03
-3.651976585388183594e-03
-3.596067428588867188e-03
-3.608703613281250000e-03
-3.734350204467773438e-03
-3.864049911499023438e-03
-3.812670707702636719e-03
-3.802299499511718750e-03
-3.851532936096191406e-03
-3.836393356323242188e-03
-3.821969032287597656e-03
-3.783822059631347656e-03
-3.752589225769042969e-03
-3.785490989685058594e-03
-3.760695457458496094e-03
-3.733754158020019531e-03
-3.736853599548339844e-03
-3.745198249816894531e-03
-3.718614578247070312e-03
-3.700852394104003906e-03
-3.755331039428710938e-03
-3.942131996154785156e-03
-3.921866416931152344e-03
-3.882765769958496094e-03
-3.863453865051269531e-03
-3.913283348083496094e-03
-3.902673721313476562e-03
-3.855347633361816406e-03
-3.866076469421386719e-03
-3.851294517517089844e-03
-3.852367401123046875e-03
-3.859043121337890625e-03
-3.751397132873535156e-03
-3.802776336669921875e-03
-3.873109817504882812e-03
-3.809452056884765625e-03
-3.779649734497070312e-03
-3.902077674865722656e-03
-4.069685935974121094e-03
-4.032492637634277344e-03
-4.048705101013183594e-03
-4.015922546386718750e-03
-4.009723663330078125e-03
-3.990054130554199219e-03
-3.955721855163574219e-03
-3.969550132751464844e-03
-3.936290740966796875e-03
-3.933310508728027344e-03
-3.915905952453613281e-03
-3.869891166687011719e-03
-3.835439682006835938e-03
-3.916740417480468750e-03
-3.879666328430175781e-03
-3.869414329528808594e-03
-4.067778587341308594e-03
-4.059553146362304688e-03
-4.103422164916992188e-03
-4.055976867675781250e-03
-4.024982452392578125e-03
-4.051804542541503906e-03
-4.073619842529296875e-03
-4.055857658386230469e-03
-4.017353057861328125e-03
-4.020571708679199219e-03
-4.018187522888183594e-03
-4.010319709777832031e-03
-3.961682319641113281e-03
-3.953695297241210938e-03
-3.947377204895019531e-03
-3.969192504882812500e-03
-4.110693931579589844e-03
-4.112482070922851562e-03
-4.125833511352539062e-03
-4.109025001525878906e-03
-4.096269607543945312e-03
-4.131078720092773438e-03
-4.084825515747070312e-03
-4.080891609191894531e-03
-4.068136215209960938e-03
-3.998994827270507812e-03
-4.020571708679199219e-03
-4.037261009216308594e-03
-4.055142402648925781e-03
-4.002213478088378906e-03
-3.990650177001953125e-03
-3.957033157348632812e-03
-4.130840301513671875e-03
-4.248380661010742188e-03
-4.170060157775878906e-03
-4.199028015136718750e-03
-4.203438758850097656e-03
-4.177927970886230469e-03
-4.149317741394042969e-03
-4.104375839233398438e-03
-4.144906997680664062e-03
-4.175662994384765625e-03
-4.095315933227539062e-03
-4.104971885681152344e-03
-4.115939140319824219e-03
-4.083871841430664062e-03
-4.111289978027343750e-03
-4.039764404296875000e-03
-4.090785980224609375e-03
-4.330396652221679688e-03
-4.282593727111816406e-03
-4.242777824401855469e-03
-4.224181175231933594e-03
-4.263162612915039062e-03
-4.271268844604492188e-03
-4.240512847900390625e-03
-4.179954528808593750e-03
-4.216432571411132812e-03
-4.228949546813964844e-03
-4.148483276367187500e-03
-4.132270812988281250e-03
-4.148483276367187500e-03
-4.147887229919433594e-03
-4.128456115722656250e-03
-4.058241844177246094e-03
-4.248738288879394531e-03
-4.389882087707519531e-03
-4.335165023803710938e-03
-4.299879074096679688e-03
-4.319429397583007812e-03
-4.300832748413085938e-03
-4.283308982849121094e-03
-4.287242889404296875e-03
-4.252910614013671875e-03
-4.264354705810546875e-03
-4.268884658813476562e-03
-4.235267639160156250e-03
-4.261612892150878906e-03
-4.200577735900878906e-03
-4.211783409118652344e-03
-4.148125648498535156e-03
-4.204392433166503906e-03
-4.413247108459472656e-03
-4.357933998107910156e-03
-4.452466964721679688e-03
-4.337549209594726562e-03
-4.360914230346679688e-03
-4.386663436889648438e-03
-4.333615303039550781e-03
-4.341363906860351562e-03
-4.270315170288085938e-03
-4.305839538574218750e-03
-4.326939582824707031e-03
-4.281520843505859375e-03
-4.220128059387207031e-03
-4.263997077941894531e-03
-4.309415817260742188e-03
-4.163861274719238281e-03
-4.183292388916015625e-03
-4.187822341918945312e-03
-4.170536994934082031e-03
-4.213452339172363281e-03
-4.225015640258789062e-03
-4.193305969238281250e-03
-4.168391227722167969e-03
-4.231929779052734375e-03
-4.158854484558105469e-03
-4.150152206420898438e-03
-4.146575927734375000e-03
-4.137992858886718750e-03
-4.145145416259765625e-03
-4.113435745239257812e-03
-4.087448120117187500e-03
-4.102587699890136719e-03
-4.055857658386230469e-03
-4.012823104858398438e-03
-4.027247428894042969e-03
-4.055023193359375000e-03
-4.015564918518066406e-03
-3.988981246948242188e-03
-3.990769386291503906e-03
-4.014253616333007812e-03
-3.980159759521484375e-03
-3.987550735473632812e-03
-3.985524177551269531e-03
-3.957152366638183594e-03
-3.996253013610839844e-03
-3.923058509826660156e-03
-3.942966461181640625e-03
-3.935217857360839844e-03
-3.913283348083496094e-03
-3.897547721862792969e-03
-3.911972045898437500e-03
-3.913283348083496094e-03
-3.855466842651367188e-03
-3.852128982543945312e-03
-3.830194473266601562e-03
-3.780364990234375000e-03
-3.801822662353515625e-03
-3.830194473266601562e-03
-3.827810287475585938e-03
-3.775238990783691406e-03
-3.756165504455566406e-03
-3.780484199523925781e-03
-3.769278526306152344e-03
-3.705620765686035156e-03
-3.705739974975585938e-03
-3.698587417602539062e-03
-3.703474998474121094e-03
-3.709912300109863281e-03
-3.656506538391113281e-03
-3.623247146606445312e-03
-3.626704216003417969e-03
-3.675222396850585938e-03
-3.673911094665527344e-03
-3.596782684326171875e-03
-3.574013710021972656e-03
-3.614664077758789062e-03
-3.626465797424316406e-03
-3.600597381591796875e-03
-3.522872924804687500e-03
-3.506064414978027344e-03
-3.471612930297851562e-03
-3.492593765258789062e-03
-3.533959388732910156e-03
-3.487229347229003906e-03
-3.385305404663085938e-03
-3.416180610656738281e-03
-3.511786460876464844e-03
-3.546476364135742188e-03
-3.445267677307128906e-03
-3.356456756591796875e-03
-3.358483314514160156e-03
-3.511309623718261719e-03
-3.469109535217285156e-03
-3.387331962585449219e-03
-3.323078155517578125e-03
-3.428220748901367188e-03
-3.395557403564453125e-03
-3.261089324951171875e-03
-3.317832946777343750e-03
-3.355264663696289062e-03
-3.408432006835937500e-03
-3.234505653381347656e-03
-3.240585327148437500e-03
-3.327250480651855469e-03
-3.362774848937988281e-03
-3.249287605285644531e-03
-3.124952316284179688e-03
-3.228187561035156250e-03
-3.299236297607421875e-03
-3.377437591552734375e-03
-3.164529800415039062e-03
-3.079533576965332031e-03
-3.181099891662597656e-03
-3.286242485046386719e-03
-3.245949745178222656e-03
-3.043532371520996094e-03
-3.126502037048339844e-03
-3.091454505920410156e-03
-3.214359283447265625e-03
-3.146290779113769531e-03
-3.281116485595703125e-03
-3.055214881896972656e-03
-2.994775772094726562e-03
-2.945661544799804688e-03
-3.141283988952636719e-03
-3.286719322204589844e-03
-2.967238426208496094e-03
-2.851009368896484375e-03
-2.864956855773925781e-03
-3.321886062622070312e-03
-3.167510032653808594e-03
-2.889990806579589844e-03
-2.650976181030273438e-03
-2.994656562805175781e-03
-3.220319747924804688e-03
-3.023386001586914062e-03
-2.778530120849609375e-03
-2.684473991394042969e-03
-3.022551536560058594e-03
-3.005027770996093750e-03
-2.968430519104003906e-03
-2.770900726318359375e-03
-2.871632575988769531e-03
-2.802371978759765625e-03
-2.833485603332519531e-03
-3.072619438171386719e-03
-2.998828887939453125e-03
-2.860426902770996094e-03
-2.275109291076660156e-03
-2.832889556884765625e-03
-3.133177757263183594e-03
-3.375411033630371094e-03
-2.221107482910156250e-03
-2.220869064331054688e-03
-2.754330635070800781e-03
-3.699421882629394531e-03
-2.650618553161621094e-03
-9.511709213256835938e-04
-1.204490661621093750e-03
-2.473115921020507812e-03
-3.872036933898925781e-03
-1.489281654357910156e-03
-9.248256683349609375e-04
-1.091122627258300781e-03
-3.532767295837402344e-03
-3.058195114135742188e-03
-1.721858978271484375e-03
-1.159310340881347656e-03
-2.286195755004882812e-03
-3.599643707275390625e-03
-2.930879592895507812e-03
-2.256870269775390625e-03
-1.915216445922851562e-03
-2.987384796142578125e-03
-2.958178520202636719e-03
-2.813220024108886719e-03
-2.115488052368164062e-03
-2.469182014465332031e-03
-2.693653106689453125e-03
-2.794981002807617188e-03
-2.521395683288574219e-03
-2.462387084960937500e-03
-2.458095550537109375e-03
-2.394437789916992188e-03
-2.584815025329589844e-03
-2.614617347717285156e-03
-2.681493759155273438e-03
-2.319812774658203125e-03
-2.302765846252441406e-03
-2.526402473449707031e-03
-2.758383750915527344e-03
-2.568125724792480469e-03
-2.233505249023437500e-03
-2.292752265930175781e-03
-2.498030662536621094e-03
-2.671003341674804688e-03
-2.407789230346679688e-03
-2.272486686706542969e-03
-2.335786819458007812e-03
-2.559781074523925781e-03
-2.487182617187500000e-03
-2.378344535827636719e-03
-2.406597137451171875e-03
-2.289056777954101562e-03
-2.354025840759277344e-03
-2.354264259338378906e-03
-2.444267272949218750e-03
-2.353191375732421875e-03
-2.247333526611328125e-03
-2.211332321166992188e-03
-2.412557601928710938e-03
-2.447962760925292969e-03
-2.332329750061035156e-03
-2.132654190063476562e-03
-2.150297164916992188e-03
-2.353072166442871094e-03
-2.376675605773925781e-03
-2.169728279113769531e-03
-2.127051353454589844e-03
-2.209663391113281250e-03
-2.309560775756835938e-03
-2.258539199829101562e-03
-2.120375633239746094e-03
-2.151131629943847656e-03
-2.223849296569824219e-03
-2.247571945190429688e-03
-2.138018608093261719e-03
-2.158045768737792969e-03
-2.205967903137207031e-03
-2.201437950134277344e-03
-2.100348472595214844e-03
-2.130627632141113281e-03
-2.144217491149902344e-03
-2.278089523315429688e-03
-2.156376838684082031e-03
-2.062797546386718750e-03
-2.041339874267578125e-03
-2.176403999328613281e-03
-2.183198928833007812e-03
-2.026796340942382812e-03
-2.014994621276855469e-03
-2.087354660034179688e-03
-2.145290374755859375e-03
-2.078652381896972656e-03
-2.043128013610839844e-03
-1.968145370483398438e-03
-2.036929130554199219e-03
-2.034664154052734375e-03
-2.068519592285156250e-03
-2.049207687377929688e-03
-1.993179321289062500e-03
-1.931190490722656250e-03
-1.952171325683593750e-03
-2.036929130554199219e-03
-2.032160758972167969e-03
-1.938343048095703125e-03
-1.871109008789062500e-03
-1.945018768310546875e-03
-1.998066902160644531e-03
-2.013921737670898438e-03
-1.879692077636718750e-03
-1.850843429565429688e-03
-1.908540725708007812e-03
-1.980781555175781250e-03
-1.949548721313476562e-03
-1.827239990234375000e-03
-1.806259155273437500e-03
-1.847505569458007812e-03
-1.932621002197265625e-03
-1.910090446472167969e-03
-1.835107803344726562e-03
-1.765847206115722656e-03
-1.833558082580566406e-03
-1.881718635559082031e-03
-1.903414726257324219e-03
-1.818776130676269531e-03
-1.728177070617675781e-03
-1.801490783691406250e-03
-1.864671707153320312e-03
-1.856684684753417969e-03
-1.757144927978515625e-03
-1.721978187561035156e-03
-1.776814460754394531e-03
-1.768827438354492188e-03
-1.751065254211425781e-03
-1.726150512695312500e-03
-1.721978187561035156e-03
-1.756072044372558594e-03
-1.724600791931152344e-03
-1.698613166809082031e-03
-1.748561859130859375e-03
-1.772046089172363281e-03
-1.657366752624511719e-03
-1.655220985412597656e-03
-1.695036888122558594e-03
-1.741170883178710938e-03
-1.702308654785156250e-03
-1.686692237854003906e-03
-1.627087593078613281e-03
-1.699566841125488281e-03
-1.741170883178710938e-03
-1.631617546081542969e-03
-1.607537269592285156e-03
-1.591444015502929688e-03
-1.689434051513671875e-03
-1.621484756469726562e-03
-1.615643501281738281e-03
-1.607775688171386719e-03
-1.627802848815917969e-03
-1.624703407287597656e-03
-1.548051834106445312e-03
-1.548171043395996094e-03
-1.605153083801269531e-03
-1.580953598022460938e-03
-1.513242721557617188e-03
-1.536250114440917969e-03
-1.572608947753906250e-03
-1.546263694763183594e-03
-1.527190208435058594e-03
-1.497387886047363281e-03
-1.484274864196777344e-03
-1.555919647216796875e-03
-1.562476158142089844e-03
-1.589417457580566406e-03
-1.528739929199218750e-03
-1.502752304077148438e-03
-1.511812210083007812e-03
-1.510977745056152344e-03
-1.458406448364257812e-03
-1.414895057678222656e-03
-1.524925231933593750e-03
-1.474618911743164062e-03
-1.477360725402832031e-03
-1.490354537963867188e-03
-1.442790031433105469e-03
-1.388192176818847656e-03
-1.400232315063476562e-03
-1.466989517211914062e-03
-1.464724540710449219e-03
-1.348614692687988281e-03
-1.317858695983886719e-03
-1.380920410156250000e-03
-1.450657844543457031e-03
-1.441717147827148438e-03
-1.325488090515136719e-03
-1.287221908569335938e-03
-1.403093338012695312e-03
-1.447439193725585938e-03
-1.359701156616210938e-03
-1.263022422790527344e-03
-1.304507255554199219e-03
-1.377582550048828125e-03
-1.379489898681640625e-03
-1.328110694885253906e-03
-1.217365264892578125e-03
-1.297473907470703125e-03
-1.381874084472656250e-03
-1.321315765380859375e-03
-1.233220100402832031e-03
-1.254200935363769531e-03
-1.337885856628417969e-03
-1.304149627685546875e-03
-1.211881637573242188e-03
-1.179695129394531250e-03
-1.212239265441894531e-03
-1.295924186706542969e-03
-1.250028610229492188e-03
-1.196384429931640625e-03
-1.196622848510742188e-03
-1.280307769775390625e-03
-1.306056976318359375e-03
-1.180529594421386719e-03
-1.174092292785644531e-03
-1.233100891113281250e-03
-1.251578330993652344e-03
-1.211762428283691406e-03
-1.160502433776855469e-03
-1.197099685668945312e-03
-1.156449317932128906e-03
-1.213788986206054688e-03
-1.182913780212402344e-03
-1.196980476379394531e-03
-1.141428947448730469e-03
-1.130342483520507812e-03
-1.183509826660156250e-03
-1.180410385131835938e-03
-1.171946525573730469e-03
-1.076221466064453125e-03
-1.114845275878906250e-03
-1.151442527770996094e-03
-1.226902008056640625e-03
-1.138210296630859375e-03
-9.602308273315429688e-04
-1.084208488464355469e-03
-1.195311546325683594e-03
-1.143932342529296875e-03
-1.069307327270507812e-03
-9.901523590087890625e-04
-1.064777374267578125e-03
-1.101613044738769531e-03
-1.063466072082519531e-03
-1.021623611450195312e-03
-9.543895721435546875e-04
-1.019477844238281250e-03
-1.088142395019531250e-03
-1.070380210876464844e-03
-1.000642776489257812e-03
-1.010537147521972656e-03
-1.072764396667480469e-03
-1.033067703247070312e-03
-1.022338867187500000e-03
-9.565353393554687500e-04
-1.002311706542968750e-03
-9.748935699462890625e-04
-1.024723052978515625e-03
-9.779930114746093750e-04
-9.965896606445312500e-04
-9.944438934326171875e-04
-9.260177612304687500e-04
-1.002550125122070312e-03
-1.038312911987304688e-03
-1.035213470458984375e-03
-8.904933929443359375e-04
-9.241104125976562500e-04
-9.889602661132812500e-04
-1.029729843139648438e-03
-8.480548858642578125e-04
-7.665157318115234375e-04
-8.294582366943359375e-04
-9.387731552124023438e-04
-9.515285491943359375e-04
-8.031129837036132812e-04
-8.497238159179687500e-04
-9.150505065917968750e-04
-9.635686874389648438e-04
-8.792877197265625000e-04
-8.698701858520507812e-04
-8.587837219238281250e-04
-9.199380874633789062e-04
-9.346008300781250000e-04
-8.314847946166992188e-04
-7.802248001098632812e-04
-8.543729782104492188e-04
-9.160041809082031250e-04
-8.445978164672851562e-04
-8.460283279418945312e-04
-8.190870285034179688e-04
-8.463859558105468750e-04
-8.639097213745117188e-04
-8.163452148437500000e-04
-7.839202880859375000e-04
-8.268356323242187500e-04
-8.299350738525390625e-04
-7.959604263305664062e-04
-7.770061492919921875e-04
-7.855892181396484375e-04
-8.769035339355468750e-04
-8.132457733154296875e-04
-7.941722869873046875e-04
-8.165836334228515625e-04
-7.969141006469726562e-04
-7.641315460205078125e-04
-7.482767105102539062e-04
-7.525682449340820312e-04
-7.834434509277343750e-04
-7.331371307373046875e-04
-7.131099700927734375e-04
-8.283853530883789062e-04
-7.698535919189453125e-04
-7.222890853881835938e-04
-7.077455520629882812e-04
-6.816387176513671875e-04
-7.493495941162109375e-04
-7.240772247314453125e-04
-6.566047668457031250e-04
-6.629228591918945312e-04
-7.061958312988281250e-04
-6.947517395019531250e-04
-6.998777389526367188e-04
-7.148981094360351562e-04
-6.935596466064453125e-04
-7.039308547973632812e-04
-7.194280624389648438e-04
-6.725788116455078125e-04
-6.797313690185546875e-04
-6.961822509765625000e-04
-7.057189941406250000e-04
-6.352663040161132812e-04
-6.363391876220703125e-04
-6.351470947265625000e-04
-6.394386291503906250e-04
-6.645917892456054688e-04
-6.806850433349609375e-04
-6.729364395141601562e-04
-6.380081176757812500e-04
-5.754232406616210938e-04
-6.365776062011718750e-04
-6.464719772338867188e-04
-5.799531936645507812e-04
-6.052255630493164062e-04
-5.629062652587890625e-04
-5.785226821899414062e-04
-6.198883056640625000e-04
-5.916357040405273438e-04
-5.338191986083984375e-04
-5.362033843994140625e-04
-5.724430084228515625e-04
-5.300045013427734375e-04
-4.899501800537109375e-04
-4.613399505615234375e-04
-4.552602767944335938e-04
-5.384683609008789062e-04
-5.837678909301757812e-04
-5.160570144653320312e-04
-5.683898925781250000e-04
-6.163120269775390625e-04
-5.455017089843750000e-04
-5.494356155395507812e-04
-4.893541336059570312e-04
-5.050897598266601562e-04
-5.230903625488281250e-04
-5.222558975219726562e-04
-5.121231079101562500e-04
-5.257129669189453125e-04
-4.527568817138671875e-04
-5.328655242919921875e-04
-6.003379821777343750e-04
-5.394220352172851562e-04
-5.376338958740234375e-04
-5.229711532592773438e-04
-5.537271499633789062e-04
-5.689859390258789062e-04
-5.799531936645507812e-04
-5.351305007934570312e-04
-5.512237548828125000e-04
-5.589723587036132812e-04
-5.617141723632812500e-04
-5.269050598144531250e-04
-4.891157150268554688e-04
-4.758834838867187500e-04
-5.232095718383789062e-04
-5.195140838623046875e-04
-5.038976669311523438e-04
-4.826784133911132812e-04
-4.458427429199218750e-04
-5.135536193847656250e-04
-5.197525024414062500e-04
-4.830360412597656250e-04
-4.912614822387695312e-04
-5.263090133666992188e-04
-5.091428756713867188e-04
-4.909038543701171875e-04
-4.162788391113281250e-04
-4.185438156127929688e-04
-3.855228424072265625e-04
-4.295110702514648438e-04
-4.134178161621093750e-04
-4.152059555053710938e-04
-3.906488418579101562e-04
-3.833770751953125000e-04
-3.517866134643554688e-04
-3.737211227416992188e-04
-3.881454467773437500e-04
-3.049373626708984375e-04
-3.371238708496093750e-04
-3.314018249511718750e-04
-3.914833068847656250e-04
-3.538131713867187500e-04
-3.169775009155273438e-04
-2.938508987426757812e-04
-3.292560577392578125e-04
-3.064870834350585938e-04
-2.790689468383789062e-04
-3.473758697509765625e-04
-3.355741500854492188e-04
-3.437995910644531250e-04
-3.384351730346679688e-04
-3.305673599243164062e-04
-3.035068511962890625e-04
-3.477334976196289062e-04
-2.955198287963867188e-04
-3.086328506469726562e-04
-3.255605697631835938e-04
-2.983808517456054688e-04
-2.877712249755859375e-04
-2.990961074829101562e-04
-3.243684768676757812e-04
-2.932548522949218750e-04
-2.803802490234375000e-04
-2.523660659790039062e-04
-3.343820571899414062e-04
-3.221035003662109375e-04
-2.897977828979492188e-04
-2.865791320800781250e-04
-2.586841583251953125e-04
-2.574920654296875000e-04
-2.827644348144531250e-04
-2.559423446655273438e-04
-1.888275146484375000e-04
-2.305507659912109375e-04
-2.946853637695312500e-04
-3.218650817871093750e-04
-2.990961074829101562e-04
-2.864599227905273438e-04
-2.634525299072265625e-04
-2.349615097045898438e-04
-2.473592758178710938e-04
-2.301931381225585938e-04
-1.691579818725585938e-04
-1.920461654663085938e-04
-2.199411392211914062e-04
-2.177953720092773438e-04
-2.042055130004882812e-04
-2.285242080688476562e-04
-2.713203430175781250e-04
-1.828670501708984375e-04
-2.129077911376953125e-04
-2.006292343139648438e-04
-2.169609069824218750e-04
-1.929998397827148438e-04
-1.466274261474609375e-04
-1.633167266845703125e-04
-1.860857009887695312e-04
-1.717805862426757812e-04
-1.379251480102539062e-04
-1.538991928100585938e-04
-1.254081726074218750e-04
-1.524686813354492188e-04
-1.027584075927734375e-04
-1.208782196044921875e-04
-1.907348632812500000e-04
-1.523494720458984375e-04
-1.553297042846679688e-04
-1.403093338012695312e-04
-1.201629638671875000e-04
-1.529455184936523438e-04
-1.490116119384765625e-04
-1.296997070312500000e-04
-1.016855239868164062e-04
-1.064538955688476562e-04
-1.323223114013671875e-04
-1.195669174194335938e-04
-1.072883605957031250e-04
-5.185604095458984375e-05
-1.213550567626953125e-04
-1.111030578613281250e-04
-1.207590103149414062e-04
-1.254081726074218750e-04
-1.233816146850585938e-04
-1.059770584106445312e-04
-1.447200775146484375e-04
-1.084804534912109375e-04
-1.019239425659179688e-04
-6.175041198730468750e-05
-6.926059722900390625e-05
-6.115436553955078125e-05
-7.081031799316406250e-05
-6.246566772460937500e-05
-3.230571746826171875e-05
-3.719329833984375000e-05
-3.242492675781250000e-05
-8.618831634521484375e-05
-5.698204040527343750e-05
-1.740455627441406250e-05
-5.447864532470703125e-05
-7.331371307373046875e-05
-7.152557373046875000e-07
-1.418590545654296875e-05
-6.484985351562500000e-05
-5.066394805908203125e-05
1.251697540283203125e-05
-4.220008850097656250e-05
-6.043910980224609375e-05
-3.874301910400390625e-05
1.215934753417968750e-05
3.457069396972656250e-05
-1.943111419677734375e-05
-1.204013824462890625e-05
1.430511474609375000e-06
2.491474151611328125e-05
3.898143768310546875e-05
-3.576278686523437500e-07
-2.932548522949218750e-05
5.841255187988281250e-05
5.567073822021484375e-05
2.276897430419921875e-05
2.682209014892578125e-05
4.053115844726562500e-05
-6.914138793945312500e-06
3.004074096679687500e-05
7.319450378417968750e-05
5.125999450683593750e-05
4.613399505615234375e-05
2.181529998779296875e-05
7.557868957519531250e-05
6.210803985595703125e-05
6.592273712158203125e-05
2.598762512207031250e-05
6.914138793945312500e-05
6.043910980224609375e-05
1.871585845947265625e-05
7.688999176025390625e-05
5.435943603515625000e-05
8.273124694824218750e-05
9.298324584960937500e-05
1.186132431030273438e-04
9.596347808837890625e-05
3.182888031005859375e-05
9.548664093017578125e-05
7.820129394531250000e-05
8.487701416015625000e-05
1.002550125122070312e-04
8.285045623779296875e-05
5.650520324707031250e-05
6.377696990966796875e-05
3.683567047119140625e-05
8.893013000488281250e-05
1.486539840698242188e-04
1.162290573120117188e-04
8.738040924072265625e-05
8.904933929443359375e-05
1.254081726074218750e-04
1.733303070068359375e-04
1.121759414672851562e-04
7.581710815429687500e-05
1.524686813354492188e-04
1.273155212402343750e-04
7.820129394531250000e-05
5.877017974853515625e-05
1.273155212402343750e-04
1.686811447143554688e-04
1.561641693115234375e-04
1.623630523681640625e-04
1.485347747802734375e-04
1.382827758789062500e-04
1.113414764404296875e-04
1.266002655029296875e-04
1.294612884521484375e-04
1.665353775024414062e-04
1.881122589111328125e-04
1.472234725952148438e-04
1.279115676879882812e-04
1.617670059204101562e-04
1.918077468872070312e-04
1.591444015502929688e-04
1.584291458129882812e-04
1.661777496337890625e-04
1.851320266723632812e-04
1.813173294067382812e-04
1.682043075561523438e-04
1.496076583862304688e-04
1.270771026611328125e-04
1.467466354370117188e-04
1.759529113769531250e-04
1.578330993652343750e-04
1.978874206542968750e-04
2.177953720092773438e-04
1.701116561889648438e-04
1.770257949829101562e-04
2.129077911376953125e-04
1.940727233886718750e-04
1.931190490722656250e-04
1.592636108398437500e-04
2.133846282958984375e-04
1.971721649169921875e-04
1.897811889648437500e-04
2.003908157348632812e-04
1.989603042602539062e-04
1.960992813110351562e-04
2.464056015014648438e-04
2.512931823730468750e-04
1.984834671020507812e-04
2.751350402832031250e-04
2.028942108154296875e-04
1.922845840454101562e-04
1.786947250366210938e-04
2.185106277465820312e-04
2.233982086181640625e-04
2.126693725585937500e-04
2.117156982421875000e-04
2.567768096923828125e-04
2.636909484863281250e-04
2.473592758178710938e-04
2.397298812866210938e-04
1.989603042602539062e-04
2.386569976806640625e-04
2.278089523315429688e-04
2.249479293823242188e-04
2.580881118774414062e-04
2.588033676147460938e-04
2.870559692382812500e-04
2.655982971191406250e-04
2.377033233642578125e-04
2.778768539428710938e-04
3.018379211425781250e-04
2.896785736083984375e-04
2.126693725585937500e-04
2.412796020507812500e-04
3.030300140380859375e-04
2.691745758056640625e-04
2.331733703613281250e-04
2.555847167968750000e-04
2.344846725463867188e-04
2.521276473999023438e-04
2.723932266235351562e-04
2.670288085937500000e-04
2.943277359008789062e-04
3.231763839721679688e-04
3.145933151245117188e-04
2.828836441040039062e-04
3.039836883544921875e-04
3.246068954467773438e-04
3.118515014648437500e-04
3.336668014526367188e-04
3.240108489990234375e-04
3.204345703125000000e-04
2.639293670654296875e-04
2.715587615966796875e-04
3.353357315063476562e-04
3.273487091064453125e-04
3.011226654052734375e-04
2.990961074829101562e-04
3.563165664672851562e-04
3.304481506347656250e-04
3.015995025634765625e-04
2.954006195068359375e-04
3.268718719482421875e-04
3.039836883544921875e-04
3.020763397216796875e-04
3.060102462768554688e-04
3.442764282226562500e-04
4.177093505859375000e-04
3.567934036254882812e-04
3.352165222167968750e-04
3.521442413330078125e-04
3.610849380493164062e-04
3.794431686401367188e-04
3.702640533447265625e-04
3.336668014526367188e-04
3.393888473510742188e-04
3.321170806884765625e-04
3.411769866943359375e-04
3.886222839355468750e-04
4.009008407592773438e-04
3.820657730102539062e-04
3.241300582885742188e-04
3.644227981567382812e-04
4.203319549560546875e-04
3.486871719360351562e-04
3.566741943359375000e-04
3.495216369628906250e-04
3.815889358520507812e-04
3.973245620727539062e-04
4.171133041381835938e-04
4.018545150756835938e-04
3.550052642822265625e-04
3.699064254760742188e-04
3.421306610107421875e-04
3.921985626220703125e-04
3.750324249267578125e-04
3.925561904907226562e-04
4.141330718994140625e-04
3.939867019653320312e-04
3.447532653808593750e-04
4.045963287353515625e-04
4.234313964843750000e-04
4.028081893920898438e-04
4.127025604248046875e-04
4.198551177978515625e-04
4.488229751586914062e-04
3.838539123535156250e-04
3.939867019653320312e-04
4.163980484008789062e-04
4.005432128906250000e-04
4.171133041381835938e-04
4.225969314575195312e-04
4.278421401977539062e-04
4.212856292724609375e-04
4.035234451293945312e-04
4.189014434814453125e-04
4.435777664184570312e-04
4.297494888305664062e-04
4.535913467407226562e-04
4.248619079589843750e-04
4.098415374755859375e-04
4.595518112182617188e-04
4.571676254272460938e-04
4.341602325439453125e-04
4.384517669677734375e-04
4.473924636840820312e-04
4.144906997680664062e-04
4.491806030273437500e-04
4.456043243408203125e-04
4.445314407348632812e-04
4.776716232299804688e-04
4.495382308959960938e-04
4.508495330810546875e-04
5.147457122802734375e-04
5.515813827514648438e-04
5.695819854736328125e-04
4.744529724121093750e-04
4.254579544067382812e-04
4.458427429199218750e-04
4.645586013793945312e-04
5.043745040893554688e-04
4.688501358032226562e-04
4.667043685913085938e-04
4.701614379882812500e-04
4.746913909912109375e-04
4.776716232299804688e-04
4.932880401611328125e-04
4.904270172119140625e-04
4.272460937500000000e-04
4.737377166748046875e-04
4.959106445312500000e-04
4.924535751342773438e-04
4.903078079223632812e-04
4.520416259765625000e-04
4.601478576660156250e-04
4.773139953613281250e-04
4.668235778808593750e-04
4.233121871948242188e-04
4.642009735107421875e-04
4.612207412719726562e-04
4.830360412597656250e-04
4.788637161254882812e-04
5.010366439819335938e-04
4.315376281738281250e-04
5.012750625610351562e-04
5.242824554443359375e-04
4.929304122924804688e-04
4.340410232543945312e-04
4.159212112426757812e-04
4.769563674926757812e-04
5.310773849487304688e-04
5.501508712768554688e-04
4.509687423706054688e-04
4.681348800659179688e-04
4.965066909790039062e-04
5.531311035156250000e-04
4.732608795166015625e-04
5.021095275878906250e-04
4.841089248657226562e-04
5.667209625244140625e-04
5.706548690795898438e-04
5.489587783813476562e-04
5.582571029663085938e-04
6.593465805053710938e-04
5.562305450439453125e-04
4.620552062988281250e-04
5.285739898681640625e-04
5.815029144287109375e-04
6.656646728515625000e-04
5.799531936645507812e-04
4.943609237670898438e-04
4.518032073974609375e-04
6.023645401000976562e-04
5.408525466918945312e-04
5.834102630615234375e-04
4.850625991821289062e-04
5.792379379272460938e-04
4.734992980957031250e-04
5.427598953247070312e-04
4.519224166870117188e-04
5.048513412475585938e-04
4.680156707763671875e-04
5.122423171997070312e-04
6.297826766967773438e-04
5.190372467041015625e-04
5.565881729125976562e-04
3.741979598999023438e-04
6.409883499145507812e-04
6.245374679565429688e-04
6.500482559204101562e-04
2.704858779907226562e-04
5.272626876831054688e-04
6.008148193359375000e-04
7.923841476440429688e-04
5.611181259155273438e-04
2.942085266113281250e-04
5.339384078979492188e-04
4.872083663940429688e-04
7.596015930175781250e-04
4.525184631347656250e-04
6.630420684814453125e-04
4.122257232666015625e-04
5.539655685424804688e-04
4.512071609497070312e-04
6.815195083618164062e-04
7.442235946655273438e-04
3.929138183593750000e-04
3.405809402465820312e-04
4.322528839111328125e-04
1.093983650207519531e-03
5.216598510742187500e-04
3.767013549804687500e-04
7.510185241699218750e-06
1.079440116882324219e-03
1.012563705444335938e-03
5.719661712646484375e-04
-2.683401107788085938e-04
6.921291351318359375e-04
2.207279205322265625e-03
1.826643943786621094e-03
8.336305618286132812e-04
-5.196332931518554688e-04
1.796364784240722656e-03
2.213358879089355469e-03
2.053260803222656250e-03
-1.610517501831054688e-04
2.483129501342773438e-04
1.450061798095703125e-03
1.789331436157226562e-03
9.915828704833984375e-04
-3.173351287841796875e-04
5.135536193847656250e-04
7.996559143066406250e-04
1.197218894958496094e-03
9.417533874511718750e-05
3.521442413330078125e-04
5.160570144653320312e-04
1.066565513610839844e-03
6.196498870849609375e-04
3.747940063476562500e-04
5.018711090087890625e-04
6.189346313476562500e-04
8.314847946166992188e-04
4.078149795532226562e-04
6.642341613769531250e-04
3.871917724609375000e-04
6.124973297119140625e-04
3.818273544311523438e-04
7.464885711669921875e-04
6.328821182250976562e-04
5.290508270263671875e-04
4.181861877441406250e-04
4.268884658813476562e-04
8.587837219238281250e-04
6.251335144042968750e-04
6.387233734130859375e-04
3.222227096557617188e-04
6.442070007324218750e-04
5.952119827270507812e-04
7.394552230834960938e-04
5.133152008056640625e-04
5.691051483154296875e-04
6.587505340576171875e-04
6.051063537597656250e-04
6.606578826904296875e-04
4.682540893554687500e-04
6.966590881347656250e-04
5.607604980468750000e-04
6.531476974487304688e-04
5.394220352172851562e-04
6.787776947021484375e-04
6.381273269653320312e-04
6.092786788940429688e-04
5.885362625122070312e-04
6.148815155029296875e-04
6.024837493896484375e-04
5.310773849487304688e-04
5.494356155395507812e-04
5.840063095092773438e-04
7.055997848510742188e-04
5.543231964111328125e-04
5.892515182495117188e-04
5.424022674560546875e-04
6.235837936401367188e-04
6.508827209472656250e-04
6.029605865478515625e-04
5.904436111450195312e-04
6.047487258911132812e-04
6.331205368041992188e-04
6.495714187622070312e-04
6.412267684936523438e-04
6.417036056518554688e-04
6.058216094970703125e-04
6.041526794433593750e-04
6.515979766845703125e-04
5.888938903808593750e-04
6.215572357177734375e-04
6.105899810791015625e-04
6.965398788452148438e-04
6.356239318847656250e-04
5.416870117187500000e-04
5.697011947631835938e-04
5.817413330078125000e-04
6.285905838012695312e-04
6.188154220581054688e-04
5.794763565063476562e-04
6.287097930908203125e-04
6.676912307739257812e-04
6.604194641113281250e-04
5.960464477539062500e-04
5.903244018554687500e-04
7.103681564331054688e-04
6.866455078125000000e-04
6.743669509887695312e-04
5.720853805541992188e-04
6.222724914550781250e-04
6.753206253051757812e-04
7.071495056152343750e-04
5.912780761718750000e-04
6.334781646728515625e-04
6.825923919677734375e-04
6.858110427856445312e-04
6.567239761352539062e-04
5.606412887573242188e-04
6.849765777587890625e-04
6.862878799438476562e-04
6.631612777709960938e-04
5.571842193603515625e-04
6.200075149536132812e-04
6.726980209350585938e-04
6.668567657470703125e-04
5.857944488525390625e-04
5.799531936645507812e-04
6.846189498901367188e-04
6.886720657348632812e-04
6.309747695922851562e-04
5.233287811279296875e-04
5.546808242797851562e-04
6.611347198486328125e-04
6.934404373168945312e-04
6.208419799804687500e-04
5.854368209838867188e-04
6.779432296752929688e-04
7.140636444091796875e-04
6.794929504394531250e-04
5.873441696166992188e-04
5.798339843750000000e-04
6.766319274902343750e-04
6.997585296630859375e-04
6.855726242065429688e-04
5.445480346679687500e-04
6.141662597656250000e-04
6.827116012573242188e-04
6.991624832153320312e-04
6.383657455444335938e-04
5.787611007690429688e-04
6.887912750244140625e-04
7.057189941406250000e-04
6.847381591796875000e-04
5.332231521606445312e-04
6.626844406127929688e-04
6.932020187377929688e-04
6.815195083618164062e-04
5.884170532226562500e-04
6.128549575805664062e-04
6.738901138305664062e-04
6.680488586425781250e-04
6.300210952758789062e-04
6.111860275268554688e-04
6.406307220458984375e-04
6.798505783081054688e-04
7.010698318481445312e-04
5.837678909301757812e-04
6.344318389892578125e-04
6.148815155029296875e-04
6.965398788452148438e-04
6.241798400878906250e-04
5.733966827392578125e-04
6.238222122192382812e-04
6.951093673706054688e-04
6.881952285766601562e-04
5.998611450195312500e-04
6.045103073120117188e-04
6.108283996582031250e-04
6.828308105468750000e-04
6.223917007446289062e-04
6.049871444702148438e-04
6.111860275268554688e-04
6.766319274902343750e-04
6.444454193115234375e-04
5.456209182739257812e-04
6.333589553833007812e-04
7.040500640869140625e-04
6.740093231201171875e-04
6.636381149291992188e-04
5.666017532348632812e-04
6.289482116699218750e-04
6.551742553710937500e-04
6.492137908935546875e-04
6.481409072875976562e-04
6.176233291625976562e-04
6.594657897949218750e-04
6.614923477172851562e-04
6.749629974365234375e-04
6.577968597412109375e-04
6.546974182128906250e-04
6.448030471801757812e-04
7.013082504272460938e-04
6.550550460815429688e-04
7.133483886718750000e-04
6.946325302124023438e-04
6.679296493530273438e-04
6.752014160156250000e-04
7.084608078002929688e-04
6.778240203857421875e-04
6.705522537231445312e-04
7.016658782958984375e-04
6.732940673828125000e-04
7.274150848388671875e-04
6.448030471801757812e-04
6.767511367797851562e-04
6.610155105590820312e-04
7.097721099853515625e-04
6.922483444213867188e-04
6.279945373535156250e-04
6.854534149169921875e-04
7.077455520629882812e-04
6.942749023437500000e-04
6.453990936279296875e-04
7.325410842895507812e-04
7.007122039794921875e-04
7.308721542358398438e-04
6.695985794067382812e-04
6.438493728637695312e-04
7.135868072509765625e-04
7.344484329223632812e-04
6.643533706665039062e-04
6.736516952514648438e-04
7.352828979492187500e-04
8.169412612915039062e-04
8.014440536499023438e-04
7.423162460327148438e-04
8.064508438110351562e-04
7.961988449096679688e-04
8.175373077392578125e-04
7.199048995971679688e-04
7.030963897705078125e-04
7.810592651367187500e-04
7.896423339843750000e-04
7.617473602294921875e-04
7.289648056030273438e-04
7.950067520141601562e-04
8.096694946289062500e-04
7.495880126953125000e-04
6.812810897827148438e-04
7.308721542358398438e-04
8.090734481811523438e-04
7.969141006469726562e-04
7.170438766479492188e-04
7.064342498779296875e-04
8.081197738647460938e-04
7.876157760620117188e-04
6.582736968994140625e-04
6.175041198730468750e-04
6.661415100097656250e-04
7.556676864624023438e-04
7.053613662719726562e-04
6.647109985351562500e-04
6.852149963378906250e-04
7.449388504028320312e-04
7.257461547851562500e-04
6.275177001953125000e-04
6.679296493530273438e-04
7.352828979492187500e-04
7.164478302001953125e-04
6.890296936035156250e-04
6.350278854370117188e-04
6.670951843261718750e-04
7.114410400390625000e-04
7.147789001464843750e-04
6.530284881591796875e-04
6.524324417114257812e-04
7.029771804809570312e-04
6.914138793945312500e-04
7.019042968750000000e-04
7.096529006958007812e-04
8.351802825927734375e-04
8.636713027954101562e-04
8.366107940673828125e-04
8.064508438110351562e-04
8.640289306640625000e-04
8.918046951293945312e-04
8.949041366577148438e-04
8.460283279418945312e-04
7.548332214355468750e-04
7.915496826171875000e-04
7.975101470947265625e-04
7.979869842529296875e-04
7.115602493286132812e-04
7.702112197875976562e-04
7.977485656738281250e-04
8.006095886230468750e-04
8.124113082885742188e-04
7.830858230590820312e-04
7.684230804443359375e-04
7.376670837402343750e-04
8.057355880737304688e-04
8.187294006347656250e-04
7.547140121459960938e-04
7.988214492797851562e-04
8.077621459960937500e-04
8.138418197631835938e-04
7.737874984741210938e-04
7.534027099609375000e-04
7.953643798828125000e-04
8.118152618408203125e-04
7.771253585815429688e-04
7.742643356323242188e-04
8.033514022827148438e-04
7.834434509277343750e-04
7.741451263427734375e-04
7.938146591186523438e-04
8.264780044555664062e-04
8.075237274169921875e-04
7.833242416381835938e-04
7.250308990478515625e-04
7.203817367553710938e-04
7.945299148559570312e-04
7.283687591552734375e-04
7.503032684326171875e-04
7.234811782836914062e-04
8.059740066528320312e-04
8.074045181274414062e-04
7.494688034057617188e-04
7.650852203369140625e-04
7.885694503784179688e-04
8.389949798583984375e-04
8.007287979125976562e-04
7.535219192504882812e-04
7.573366165161132812e-04
8.652210235595703125e-04
7.921457290649414062e-04
7.506608963012695312e-04
8.018016815185546875e-04
8.341073989868164062e-04
8.189678192138671875e-04
7.944107055664062500e-04
7.603168487548828125e-04
8.374452590942382812e-04
8.773803710937500000e-04
8.041858673095703125e-04
7.899999618530273438e-04
7.984638214111328125e-04
8.020401000976562500e-04
8.016824722290039062e-04
7.759332656860351562e-04
7.504224777221679688e-04
7.721185684204101562e-04
7.947683334350585938e-04
7.997751235961914062e-04
6.978511810302734375e-04
7.305145263671875000e-04
7.268190383911132812e-04
7.143020629882812500e-04
7.066726684570312500e-04
7.137060165405273438e-04
7.044076919555664062e-04
7.011890411376953125e-04
7.365942001342773438e-04
6.922483444213867188e-04
7.226467132568359375e-04
7.219314575195312500e-04
7.482767105102539062e-04
7.207393646240234375e-04
7.501840591430664062e-04
7.680654525756835938e-04
7.358789443969726562e-04
7.708072662353515625e-04
7.598400115966796875e-04
7.420778274536132812e-04
7.368326187133789062e-04
7.302761077880859375e-04
7.337331771850585938e-04
7.252693176269531250e-04
7.207393646240234375e-04
7.451772689819335938e-04
7.433891296386718750e-04
7.709264755249023438e-04
7.833242416381835938e-04
8.006095886230468750e-04
7.730722427368164062e-04
7.529258728027343750e-04
7.615089416503906250e-04
7.740259170532226562e-04
7.581710815429687500e-04
7.561445236206054688e-04
7.151365280151367188e-04
7.157325744628906250e-04
7.236003875732421875e-04
7.395744323730468750e-04
7.730722427368164062e-04
7.790327072143554688e-04
7.491111755371093750e-04
7.824897766113281250e-04
7.778406143188476562e-04
7.698535919189453125e-04
7.982254028320312500e-04
8.163452148437500000e-04
7.812976837158203125e-04
7.756948471069335938e-04
7.597208023071289062e-04
7.876157760620117188e-04
8.187294006347656250e-04
7.256269454956054688e-04
7.745027542114257812e-04
8.087158203125000000e-04
7.603168487548828125e-04
7.239580154418945312e-04
7.829666137695312500e-04
8.026361465454101562e-04
8.045434951782226562e-04
7.822513580322265625e-04
7.545948028564453125e-04
7.870197296142578125e-04
7.833242416381835938e-04
7.537603378295898438e-04
7.263422012329101562e-04
7.784366607666015625e-04
7.467269897460937500e-04
7.109642028808593750e-04
7.154941558837890625e-04
7.637739181518554688e-04
8.018016815185546875e-04
7.507801055908203125e-04
7.309913635253906250e-04
7.573366165161132812e-04
8.138418197631835938e-04
7.332563400268554688e-04
6.965398788452148438e-04
7.312297821044921875e-04
7.365942001342773438e-04
7.710456848144531250e-04
6.979703903198242188e-04
7.013082504272460938e-04
7.590055465698242188e-04
7.601976394653320312e-04
7.693767547607421875e-04
7.377862930297851562e-04
7.439851760864257812e-04
7.719993591308593750e-04
7.423162460327148438e-04
6.799697875976562500e-04
7.154941558837890625e-04
7.367134094238281250e-04
7.200241088867187500e-04
7.218122482299804688e-04
7.078647613525390625e-04
7.264614105224609375e-04
7.432699203491210938e-04
7.283687591552734375e-04
7.678270339965820312e-04
7.622241973876953125e-04
7.795095443725585938e-04
7.839202880859375000e-04
7.389783859252929688e-04
7.736682891845703125e-04
7.978677749633789062e-04
7.829666137695312500e-04
8.071660995483398438e-04
7.998943328857421875e-04
8.099079132080078125e-04
8.031129837036132812e-04
7.735490798950195312e-04
7.183551788330078125e-04
7.836818695068359375e-04
8.174180984497070312e-04
7.733106613159179688e-04
7.566213607788085938e-04
7.700920104980468750e-04
7.956027984619140625e-04
7.838010787963867188e-04
7.705688476562500000e-04
6.909370422363281250e-04
8.052587509155273438e-04
7.525682449340820312e-04
7.364749908447265625e-04
7.327795028686523438e-04
7.327795028686523438e-04
7.854700088500976562e-04
7.736682891845703125e-04
7.513761520385742188e-04
7.622241973876953125e-04
8.155107498168945312e-04
7.724761962890625000e-04
7.810592651367187500e-04
7.681846618652343750e-04
7.821321487426757812e-04
7.939338684082031250e-04
7.561445236206054688e-04
7.976293563842773438e-04
7.891654968261718750e-04
8.124113082885742188e-04
7.556676864624023438e-04
7.514953613281250000e-04
8.287429809570312500e-04
8.044242858886718750e-04
7.983446121215820312e-04
7.596015930175781250e-04
8.189678192138671875e-04
7.970333099365234375e-04
7.892847061157226562e-04
8.087158203125000000e-04
8.291006088256835938e-04
8.364915847778320312e-04
8.083581924438476562e-04
7.998943328857421875e-04
8.025169372558593750e-04
7.926225662231445312e-04
8.001327514648437500e-04
7.694959640502929688e-04
7.401704788208007812e-04
7.270574569702148438e-04
7.398128509521484375e-04
7.005929946899414062e-04
6.773471832275390625e-04
7.613897323608398438e-04
7.488727569580078125e-04
6.957054138183593750e-04
7.500648498535156250e-04
7.884502410888671875e-04
7.102489471435546875e-04
7.258653640747070312e-04
7.009506225585937500e-04
6.778240203857421875e-04
7.338523864746093750e-04
7.168054580688476562e-04
6.928443908691406250e-04
7.408857345581054688e-04
7.371902465820312500e-04
7.653236389160156250e-04
7.429122924804687500e-04
7.352828979492187500e-04
7.272958755493164062e-04
7.512569427490234375e-04
7.001161575317382812e-04
7.127523422241210938e-04
7.052421569824218750e-04
7.251501083374023438e-04
7.134675979614257812e-04
6.991624832153320312e-04
7.368326187133789062e-04
7.195472717285156250e-04
7.296800613403320312e-04
6.867647171020507812e-04
6.836652755737304688e-04
6.785392761230468750e-04
7.189512252807617188e-04
7.008314132690429688e-04
6.921291351318359375e-04
7.216930389404296875e-04
7.252693176269531250e-04
7.116794586181640625e-04
6.862878799438476562e-04
6.858110427856445312e-04
6.463527679443359375e-04
6.670951843261718750e-04
6.749629974365234375e-04
6.889104843139648438e-04
7.215738296508789062e-04
7.077455520629882812e-04
6.906986236572265625e-04
6.995201110839843750e-04
7.240772247314453125e-04
7.157325744628906250e-04
7.120370864868164062e-04
7.178783416748046875e-04
6.963014602661132812e-04
7.061958312988281250e-04
7.112026214599609375e-04
6.960630416870117188e-04
6.607770919799804688e-04
6.405115127563476562e-04
6.521940231323242188e-04
6.283521652221679688e-04
6.400346755981445312e-04
7.025003433227539062e-04
7.023811340332031250e-04
6.868839263916015625e-04
6.906986236572265625e-04
7.041692733764648438e-04
7.042884826660156250e-04
7.035732269287109375e-04
6.644725799560546875e-04
7.266998291015625000e-04
7.132291793823242188e-04
6.064176559448242188e-04
6.238222122192382812e-04
6.622076034545898438e-04
7.095336914062500000e-04
6.870031356811523438e-04
7.091760635375976562e-04
6.979703903198242188e-04
7.231235504150390625e-04
6.902217864990234375e-04
6.471872329711914062e-04
6.746053695678710938e-04
6.715059280395507812e-04
6.920099258422851562e-04
6.921291351318359375e-04
7.003545761108398438e-04
6.960630416870117188e-04
6.954669952392578125e-04
6.806850433349609375e-04
6.825923919677734375e-04
6.983280181884765625e-04
6.967782974243164062e-04
7.034540176391601562e-04
7.302761077880859375e-04
7.135868072509765625e-04
6.960630416870117188e-04
6.662607192993164062e-04
6.501674652099609375e-04
6.717443466186523438e-04
6.453990936279296875e-04
6.716251373291015625e-04
6.847381591796875000e-04
6.346702575683593750e-04
6.773471832275390625e-04
6.613731384277343750e-04
6.139278411865234375e-04
6.372928619384765625e-04
7.084608078002929688e-04
7.096529006958007812e-04
6.573200225830078125e-04
6.802082061767578125e-04
6.629228591918945312e-04
6.713867187500000000e-04
6.244182586669921875e-04
6.586313247680664062e-04
6.419420242309570312e-04
6.687641143798828125e-04
6.979703903198242188e-04
6.402730941772460938e-04
6.686449050903320312e-04
6.756782531738281250e-04
6.099939346313476562e-04
6.204843521118164062e-04
6.998777389526367188e-04
6.513595581054687500e-04
6.885528564453125000e-04
6.724596023559570312e-04
6.579160690307617188e-04
6.939172744750976562e-04
6.881952285766601562e-04
6.545782089233398438e-04
6.276369094848632812e-04
6.453990936279296875e-04
6.500482559204101562e-04
6.358623504638671875e-04
6.055831909179687500e-04
6.194114685058593750e-04
6.462335586547851562e-04
6.668567657470703125e-04
7.138252258300781250e-04
6.526708602905273438e-04
6.511211395263671875e-04
6.653070449829101562e-04
6.109476089477539062e-04
6.836652755737304688e-04
6.593465805053710938e-04
6.542205810546875000e-04
6.461143493652343750e-04
6.504058837890625000e-04
6.299018859863281250e-04
6.515979766845703125e-04
6.515979766845703125e-04
6.003379821777343750e-04
6.625652313232421875e-04
6.889104843139648438e-04
6.753206253051757812e-04
6.282329559326171875e-04
6.247758865356445312e-04
6.620883941650390625e-04
6.558895111083984375e-04
6.440877914428710938e-04
6.517171859741210938e-04
6.331205368041992188e-04
6.457567214965820312e-04
6.259679794311523438e-04
6.495714187622070312e-04
6.272792816162109375e-04
6.481409072875976562e-04
6.597042083740234375e-04
6.219148635864257812e-04
6.610155105590820312e-04
6.409883499145507812e-04
6.256103515625000000e-04
5.893707275390625000e-04
6.556510925292968750e-04
6.991624832153320312e-04
6.445646286010742188e-04
6.232261657714843750e-04
6.276369094848632812e-04
6.390810012817382812e-04
6.480216979980468750e-04
6.052255630493164062e-04
5.654096603393554688e-04
6.055831909179687500e-04
6.498098373413085938e-04
6.556510925292968750e-04
5.704164505004882812e-04
6.088018417358398438e-04
6.544589996337890625e-04
6.656646728515625000e-04
5.919933319091796875e-04
5.714893341064453125e-04
6.390810012817382812e-04
6.996393203735351562e-04
6.481409072875976562e-04
5.651712417602539062e-04
6.402730941772460938e-04
6.983280181884765625e-04
6.805658340454101562e-04
5.915164947509765625e-04
5.469322204589843750e-04
6.667375564575195312e-04
6.920099258422851562e-04
5.789995193481445312e-04
6.026029586791992188e-04
5.583763122558593750e-04
6.374120712280273438e-04
6.644725799560546875e-04
6.120204925537109375e-04
6.221532821655273438e-04
6.222724914550781250e-04
6.744861602783203125e-04
6.433725357055664062e-04
6.799697875976562500e-04
5.505084991455078125e-04
5.638599395751953125e-04
6.778240203857421875e-04
6.868839263916015625e-04
6.686449050903320312e-04
5.079507827758789062e-04
5.675554275512695312e-04
6.402730941772460938e-04
6.953477859497070312e-04
6.049871444702148438e-04
5.041360855102539062e-04
5.370378494262695312e-04
6.982088088989257812e-04
7.073879241943359375e-04
5.043745040893554688e-04
5.954504013061523438e-04
7.140636444091796875e-04
8.033514022827148438e-04
5.760192871093750000e-04
5.154609680175781250e-04
6.140470504760742188e-04
8.150339126586914062e-04
7.519721984863281250e-04
5.056858062744140625e-04
5.522966384887695312e-04
7.324218750000000000e-04
8.215904235839843750e-04
5.726814270019531250e-04
5.016326904296875000e-04
6.742477416992187500e-04
8.715391159057617188e-04
6.510019302368164062e-04
5.056858062744140625e-04
5.850791931152343750e-04
8.279085159301757812e-04
8.075237274169921875e-04
6.148815155029296875e-04
5.412101745605468750e-04
6.319284439086914062e-04
7.989406585693359375e-04
6.995201110839843750e-04
6.258487701416015625e-04
5.496740341186523438e-04
7.071495056152343750e-04
7.287263870239257812e-04
7.104873657226562500e-04
6.395578384399414062e-04
6.599426269531250000e-04
6.726980209350585938e-04
6.651878356933593750e-04
8.260011672973632812e-04
6.769895553588867188e-04
5.692243576049804688e-04
4.616975784301757812e-04
7.358789443969726562e-04
8.423328399658203125e-04
7.295608520507812500e-04
4.358291625976562500e-04
4.805326461791992188e-04
8.319616317749023438e-04
8.975267410278320312e-04
6.493330001831054688e-04
3.418922424316406250e-04
5.950927734375000000e-04
7.376670837402343750e-04
8.747577667236328125e-04
5.333423614501953125e-04
5.965232849121093750e-04
5.502700805664062500e-04
7.103681564331054688e-04
7.184743881225585938e-04
7.261037826538085938e-04
7.917881011962890625e-04
4.686117172241210938e-04
5.538463592529296875e-04
6.219148635864257812e-04
1.139402389526367188e-03
5.444288253784179688e-04
3.618001937866210938e-04
1.549720764160156250e-04
1.089692115783691406e-03
1.071095466613769531e-03
6.217956542968750000e-04
-2.361536026000976562e-04
7.117986679077148438e-04
2.414107322692871094e-03
2.130508422851562500e-03
1.052498817443847656e-03
-5.345344543457031250e-04
1.778960227966308594e-03
2.360701560974121094e-03
2.266049385070800781e-03
-3.790855407714843750e-05
1.986026763916015625e-04
1.568675041198730469e-03
1.959800720214843750e-03
1.132845878601074219e-03
-2.458095550537109375e-04
4.780292510986328125e-04
8.176565170288085938e-04
1.271367073059082031e-03
2.764463424682617188e-04
3.950595855712890625e-04
4.491806030273437500e-04
9.382963180541992188e-04
6.912946701049804688e-04
5.193948745727539062e-04
5.365610122680664062e-04
5.455017089843750000e-04
8.848905563354492188e-04
8.357763290405273438e-04
9.779930114746093750e-04
7.871389389038085938e-04
8.342266082763671875e-04
6.688833236694335938e-04
9.633302688598632812e-04
1.047372817993164062e-03
8.296966552734375000e-04
6.031990051269531250e-04
6.004571914672851562e-04
9.598731994628906250e-04
1.073718070983886719e-03
8.620023727416992188e-04
5.913972854614257812e-04
6.506443023681640625e-04
1.049995422363281250e-03
1.239299774169921875e-03
1.084208488464355469e-03
9.193420410156250000e-04
1.145243644714355469e-03
1.124143600463867188e-03
1.101851463317871094e-03
9.907484054565429688e-04
1.019835472106933594e-03
9.943246841430664062e-04
1.004695892333984375e-03
1.030683517456054688e-03
9.733438491821289062e-04
1.042842864990234375e-03
9.882450103759765625e-04
1.111149787902832031e-03
1.003861427307128906e-03
1.227855682373046875e-03
1.203298568725585938e-03
1.268982887268066406e-03
1.326084136962890625e-03
1.344203948974609375e-03
1.211047172546386719e-03
1.187562942504882812e-03
1.258254051208496094e-03
1.307845115661621094e-03
1.246213912963867188e-03
1.157283782958984375e-03
1.247525215148925781e-03
1.285076141357421875e-03
1.238822937011718750e-03
1.135826110839843750e-03
1.118540763854980469e-03
1.386523246765136719e-03
1.601219177246093750e-03
1.425147056579589844e-03
1.386523246765136719e-03
1.500725746154785156e-03
1.601576805114746094e-03
1.503229141235351562e-03
1.457929611206054688e-03
1.349925994873046875e-03
1.456975936889648438e-03
1.470327377319335938e-03
1.538515090942382812e-03
1.453995704650878906e-03
1.443862915039062500e-03
1.436710357666015625e-03
1.406908035278320312e-03
1.448035240173339844e-03
1.601934432983398438e-03
1.770257949829101562e-03
1.692771911621093750e-03
1.707911491394042969e-03
1.621127128601074219e-03
1.592397689819335938e-03
1.588582992553710938e-03
1.678347587585449219e-03
1.633405685424804688e-03
1.672983169555664062e-03
1.709103584289550781e-03
1.710772514343261719e-03
1.708626747131347656e-03
1.588463783264160156e-03
1.617550849914550781e-03
1.518487930297851562e-03
1.730442047119140625e-03
1.879215240478515625e-03
1.838684082031250000e-03
1.892447471618652344e-03
1.897215843200683594e-03
1.868128776550292969e-03
1.792311668395996094e-03
1.704216003417968750e-03
1.777172088623046875e-03
1.869082450866699219e-03
1.870632171630859375e-03
1.873254776000976562e-03
1.814842224121093750e-03
1.840591430664062500e-03
1.819133758544921875e-03
1.773715019226074219e-03
1.818299293518066406e-03
1.913785934448242188e-03
1.942873001098632812e-03
1.946210861206054688e-03
1.951932907104492188e-03
1.914978027343750000e-03
1.876354217529296875e-03
1.856088638305664062e-03
1.837253570556640625e-03
1.924753189086914062e-03
2.000689506530761719e-03
1.942873001098632812e-03
1.855850219726562500e-03
1.885652542114257812e-03
1.840829849243164062e-03
1.850128173828125000e-03
1.798033714294433594e-03
1.964926719665527344e-03
2.138137817382812500e-03
2.183556556701660156e-03
2.112388610839843750e-03
2.038002014160156250e-03
1.979351043701171875e-03
1.962542533874511719e-03
2.059817314147949219e-03
1.978158950805664062e-03
2.055764198303222656e-03
2.074837684631347656e-03
2.081632614135742188e-03
2.059817314147949219e-03
2.002954483032226562e-03
1.963019371032714844e-03
1.977562904357910156e-03
2.065420150756835938e-03
2.353787422180175781e-03
2.342462539672851562e-03
2.312898635864257812e-03
2.297282218933105469e-03
2.198100090026855469e-03
2.221584320068359375e-03
2.201318740844726562e-03
2.215027809143066406e-03
2.209305763244628906e-03
2.351284027099609375e-03
2.372145652770996094e-03
2.331972122192382812e-03
2.209424972534179688e-03
2.217888832092285156e-03
2.217769622802734375e-03
2.199888229370117188e-03
2.381324768066406250e-03
2.339601516723632812e-03
2.338767051696777344e-03
2.325773239135742188e-03
2.281188964843750000e-03
2.150297164916992188e-03
2.192258834838867188e-03
2.230644226074218750e-03
2.203941345214843750e-03
2.272009849548339844e-03
2.340793609619140625e-03
2.288937568664550781e-03
2.192020416259765625e-03
2.197146415710449219e-03
2.194523811340332031e-03
2.138733863830566406e-03
2.313017845153808594e-03
2.519488334655761719e-03
2.463340759277343750e-03
2.485752105712890625e-03
2.474784851074218750e-03
2.307415008544921875e-03
2.360343933105468750e-03
2.357244491577148438e-03
2.434730529785156250e-03
2.444982528686523438e-03
2.425432205200195312e-03
2.444624900817871094e-03
2.398848533630371094e-03
2.340793609619140625e-03
2.273321151733398438e-03
2.234935760498046875e-03
2.390861511230468750e-03
2.802610397338867188e-03
2.690553665161132812e-03
2.642512321472167969e-03
2.695918083190917969e-03
2.702116966247558594e-03
2.584934234619140625e-03
2.610445022583007812e-03
2.643346786499023438e-03
2.684116363525390625e-03
2.721309661865234375e-03
2.693891525268554688e-03
2.619266510009765625e-03
2.557873725891113281e-03
2.625107765197753906e-03
2.574086189270019531e-03
2.503156661987304688e-03
2.634286880493164062e-03
2.888202667236328125e-03
2.833604812622070312e-03
2.673506736755371094e-03
2.620458602905273438e-03
2.595067024230957031e-03
2.659797668457031250e-03
2.636313438415527344e-03
2.591967582702636719e-03
2.637624740600585938e-03
2.744197845458984375e-03
2.692580223083496094e-03
2.581477165222167969e-03
2.573132514953613281e-03
2.532005310058593750e-03
2.512574195861816406e-03
2.642869949340820312e-03
2.771019935607910156e-03
2.751350402832031250e-03
2.765297889709472656e-03
2.694129943847656250e-03
2.616047859191894531e-03
2.569317817687988281e-03
2.688646316528320312e-03
2.700805664062500000e-03
2.649068832397460938e-03
2.751588821411132812e-03
2.733945846557617188e-03
2.637624740600585938e-03
2.568125724792480469e-03
2.569437026977539062e-03
2.512931823730468750e-03
2.555966377258300781e-03
2.716898918151855469e-03
2.765059471130371094e-03
2.713918685913085938e-03
2.753138542175292969e-03
2.704262733459472656e-03
2.573728561401367188e-03
2.607107162475585938e-03
2.617239952087402344e-03
2.670526504516601562e-03
2.676367759704589844e-03
2.710342407226562500e-03
2.647995948791503906e-03
2.586603164672851562e-03
2.539038658142089844e-03
2.543807029724121094e-03
2.563118934631347656e-03
2.726912498474121094e-03
2.763628959655761719e-03
2.696990966796875000e-03
2.782106399536132812e-03
2.725839614868164062e-03
2.605438232421875000e-03
2.562761306762695312e-03
2.618432044982910156e-03
2.651214599609375000e-03
2.654910087585449219e-03
2.662897109985351562e-03
2.696633338928222656e-03
2.628087997436523438e-03
2.591848373413085938e-03
2.567887306213378906e-03
2.620220184326171875e-03
2.693295478820800781e-03
2.668380737304687500e-03
2.645969390869140625e-03
2.592444419860839844e-03
2.617359161376953125e-03
2.567648887634277344e-03
2.399086952209472656e-03
2.397179603576660156e-03
2.493500709533691406e-03
2.565741539001464844e-03
2.529144287109375000e-03
2.499818801879882812e-03
2.518296241760253906e-03
2.525687217712402344e-03
2.516508102416992188e-03
2.396941184997558594e-03
2.372264862060546875e-03
2.588868141174316406e-03
2.647042274475097656e-03
2.591729164123535156e-03
2.541303634643554688e-03
2.528548240661621094e-03
2.605199813842773438e-03
2.512097358703613281e-03
2.491593360900878906e-03
2.547621726989746094e-03
2.600789070129394531e-03
2.569317817687988281e-03
2.515673637390136719e-03
2.466440200805664062e-03
2.431392669677734375e-03
2.481460571289062500e-03
2.426028251647949219e-03
2.475619316101074219e-03
2.515316009521484375e-03
2.543687820434570312e-03
2.495884895324707031e-03
2.458930015563964844e-03
2.433180809020996094e-03
2.460837364196777344e-03
2.420186996459960938e-03
2.363324165344238281e-03
2.458333969116210938e-03
2.474188804626464844e-03
2.449512481689453125e-03
2.372026443481445312e-03
2.337455749511718750e-03
2.357006072998046875e-03
2.419590950012207031e-03
2.356410026550292969e-03
2.447009086608886719e-03
2.466320991516113281e-03
2.510309219360351562e-03
2.558469772338867188e-03
2.446055412292480469e-03
2.398014068603515625e-03
2.380967140197753906e-03
2.460002899169921875e-03
2.396583557128906250e-03
2.426147460937500000e-03
2.416491508483886719e-03
2.402424812316894531e-03
2.402782440185546875e-03
2.415776252746582031e-03
2.381086349487304688e-03
2.335429191589355469e-03
2.365946769714355469e-03
2.391457557678222656e-03
2.459883689880371094e-03
2.373456954956054688e-03
2.303361892700195312e-03
2.246499061584472656e-03
2.286314964294433594e-03
2.259850502014160156e-03
2.249598503112792969e-03
2.218008041381835938e-03
2.251744270324707031e-03
2.242565155029296875e-03
2.225041389465332031e-03
2.201557159423828125e-03
2.192974090576171875e-03
2.197742462158203125e-03
2.243041992187500000e-03
2.229571342468261719e-03
2.182841300964355469e-03
2.154827117919921875e-03
2.171158790588378906e-03
2.186417579650878906e-03
2.135753631591796875e-03
2.135038375854492188e-03
2.112507820129394531e-03
2.114176750183105469e-03
2.130985260009765625e-03
2.140998840332031250e-03
2.134799957275390625e-03
2.156734466552734375e-03
2.106308937072753906e-03
2.071499824523925781e-03
2.115368843078613281e-03
2.191424369812011719e-03
2.144336700439453125e-03
2.079725265502929688e-03
2.052545547485351562e-03
2.091646194458007812e-03
2.135634422302246094e-03
2.086758613586425781e-03
1.967310905456542969e-03
2.041101455688476562e-03
2.120137214660644531e-03
2.087593078613281250e-03
2.082109451293945312e-03
2.016305923461914062e-03
2.057909965515136719e-03
2.078890800476074219e-03
2.071976661682128906e-03
1.942157745361328125e-03
1.843810081481933594e-03
1.924514770507812500e-03
1.922369003295898438e-03
1.906156539916992188e-03
1.853227615356445312e-03
1.868605613708496094e-03
1.891613006591796875e-03
1.866936683654785156e-03
1.859545707702636719e-03
1.841425895690917969e-03
1.817941665649414062e-03
1.776456832885742188e-03
1.795649528503417969e-03
1.821637153625488281e-03
1.819968223571777344e-03
1.837134361267089844e-03
1.803994178771972656e-03
1.786947250366210938e-03
1.805782318115234375e-03
1.784801483154296875e-03
1.755475997924804688e-03
1.758456230163574219e-03
1.812100410461425781e-03
1.800179481506347656e-03
1.728415489196777344e-03
1.690745353698730469e-03
1.742601394653320312e-03
1.801609992980957031e-03
1.705288887023925781e-03
1.709818840026855469e-03
1.739740371704101562e-03
1.778721809387207031e-03
1.695156097412109375e-03
1.559615135192871094e-03
1.594424247741699219e-03
1.573801040649414062e-03
1.553773880004882812e-03
1.514434814453125000e-03
1.510381698608398438e-03
1.564741134643554688e-03
1.564502716064453125e-03
1.466155052185058594e-03
1.439213752746582031e-03
1.518249511718750000e-03
1.575350761413574219e-03
1.491069793701171875e-03
1.465201377868652344e-03
1.477599143981933594e-03
1.526951789855957031e-03
1.523375511169433594e-03
1.438975334167480469e-03
1.451134681701660156e-03
1.506090164184570312e-03
1.521229743957519531e-03
1.451969146728515625e-03
1.419186592102050781e-03
1.465797424316406250e-03
1.497387886047363281e-03
1.465201377868652344e-03
1.396775245666503906e-03
1.404285430908203125e-03
1.448392868041992188e-03
1.436948776245117188e-03
1.406788825988769531e-03
1.405358314514160156e-03
1.340866088867187500e-03
1.281857490539550781e-03
1.255869865417480469e-03
1.245975494384765625e-03
1.256704330444335938e-03
1.297831535339355469e-03
1.202225685119628906e-03
1.159906387329101562e-03
1.240491867065429688e-03
1.260519027709960938e-03
1.247644424438476562e-03
1.191735267639160156e-03
1.226782798767089844e-03
1.275897026062011719e-03
1.204252243041992188e-03
1.210212707519531250e-03
1.225113868713378906e-03
1.112341880798339844e-03
1.112461090087890625e-03
1.018643379211425781e-03
1.079559326171875000e-03
1.096844673156738281e-03
1.064062118530273438e-03
1.095056533813476562e-03
1.057505607604980469e-03
1.096844673156738281e-03
1.015543937683105469e-03
9.844303131103515625e-04
1.019477844238281250e-03
1.011967658996582031e-03
1.077294349670410156e-03
1.051425933837890625e-03
9.837150573730468750e-04
9.027719497680664062e-04
8.788108825683593750e-04
8.665323257446289062e-04
8.400678634643554688e-04
8.664131164550781250e-04
8.735656738281250000e-04
9.458065032958984375e-04
8.776187896728515625e-04
8.270740509033203125e-04
8.354187011718750000e-04
9.047985076904296875e-04
8.828639984130859375e-04
8.600950241088867188e-04
8.746385574340820312e-04
9.200572967529296875e-04
9.353160858154296875e-04
8.403062820434570312e-04
6.890296936035156250e-04
6.996393203735351562e-04
7.004737854003906250e-04
6.996393203735351562e-04
7.352828979492187500e-04
6.848573684692382812e-04
7.357597351074218750e-04
7.092952728271484375e-04
6.685256958007812500e-04
6.672143936157226562e-04
7.110834121704101562e-04
6.997585296630859375e-04
7.493495941162109375e-04
7.619857788085937500e-04
7.593631744384765625e-04
6.974935531616210938e-04
3.384351730346679688e-04
2.660751342773437500e-04
2.670288085937500000e-04
2.992153167724609375e-04
2.827644348144531250e-04
3.064870834350585938e-04
3.236532211303710938e-04
3.777742385864257812e-04
3.391504287719726562e-04
2.819299697875976562e-04
2.473592758178710938e-04
2.264976501464843750e-04
2.624988555908203125e-04
3.515481948852539062e-04
3.021955490112304688e-04
3.143548965454101562e-04
1.517534255981445312e-04
5.888938903808593750e-05
7.200241088867187500e-05
-2.157688140869140625e-05
3.421306610107421875e-05
6.020069122314453125e-05
1.105070114135742188e-04
7.128715515136718750e-05
6.544589996337890625e-05
-5.841255187988281250e-06
2.813339233398437500e-05
-2.241134643554687500e-05
7.021427154541015625e-05
7.057189941406250000e-05
1.108646392822265625e-04
6.330013275146484375e-05
1.609325408935546875e-05
-1.034736633300781250e-04
-1.741647720336914062e-04
-1.796483993530273438e-04
-1.745223999023437500e-04
-8.642673492431640625e-05
-3.910064697265625000e-05
-5.424022674560546875e-05
-1.019239425659179688e-04
-1.356601715087890625e-04
-1.902580261230468750e-04
-1.392364501953125000e-04
-1.016855239868164062e-04
-1.200437545776367188e-04
-7.450580596923828125e-05
-3.433227539062500000e-05
-6.604194641113281250e-05
-3.018379211425781250e-04
-4.185438156127929688e-04
-4.080533981323242188e-04
-3.987550735473632812e-04
-3.809928894042968750e-04
-3.284215927124023438e-04
-2.678632736206054688e-04
-3.457069396972656250e-04
-3.515481948852539062e-04
-4.191398620605468750e-04
-4.056692123413085938e-04
-4.351139068603515625e-04
-4.000663757324218750e-04
-2.956390380859375000e-04
-3.510713577270507812e-04
-2.620220184326171875e-04
-4.162788391113281250e-04
-6.321668624877929688e-04
-6.421804428100585938e-04
-6.657838821411132812e-04
-5.890130996704101562e-04
-5.321502685546875000e-04
-5.376338958740234375e-04
-5.880594253540039062e-04
-5.996227264404296875e-04
-6.493330001831054688e-04
-7.116794586181640625e-04
-6.846189498901367188e-04
-6.417036056518554688e-04
-5.443096160888671875e-04
-5.625486373901367188e-04
-5.513429641723632812e-04
-5.490779876708984375e-04
-7.783174514770507812e-04
-7.290840148925781250e-04
-7.660388946533203125e-04
-6.909370422363281250e-04
-7.092952728271484375e-04
-6.721019744873046875e-04
-6.444454193115234375e-04
-6.743669509887695312e-04
-6.985664367675781250e-04
-7.690191268920898438e-04
-7.772445678710937500e-04
-7.196664810180664062e-04
-6.676912307739257812e-04
-6.774663925170898438e-04
-6.518363952636718750e-04
-6.475448608398437500e-04
-8.468627929687500000e-04
-1.018285751342773438e-03
-1.025199890136718750e-03
-9.902715682983398438e-04
-8.946657180786132812e-04
-9.166002273559570312e-04
-8.821487426757812500e-04
-9.356737136840820312e-04
-9.746551513671875000e-04
-9.483098983764648438e-04
-9.858608245849609375e-04
-9.752511978149414062e-04
-9.081363677978515625e-04
-8.733272552490234375e-04
-9.015798568725585938e-04
-8.530616760253906250e-04
-9.545087814331054688e-04
-1.220464706420898438e-03
-1.245498657226562500e-03
-1.169085502624511719e-03
-1.192092895507812500e-03
-1.120209693908691406e-03
-1.122713088989257812e-03
-1.128911972045898438e-03
-1.127243041992187500e-03
-1.240730285644531250e-03
-1.216650009155273438e-03
-1.188158988952636719e-03
-1.134991645812988281e-03
-1.075387001037597656e-03
-1.045703887939453125e-03
-1.057028770446777344e-03
-1.075506210327148438e-03
-1.322746276855468750e-03
-1.435518264770507812e-03
-1.395344734191894531e-03
-1.376628875732421875e-03
-1.337289810180664062e-03
-1.311063766479492188e-03
-1.292467117309570312e-03
-1.391530036926269531e-03
-1.353621482849121094e-03
-1.370906829833984375e-03
-1.393795013427734375e-03
-1.310348510742187500e-03
-1.336574554443359375e-03
-1.273274421691894531e-03
-1.318693161010742188e-03
-1.264214515686035156e-03
-1.493215560913085938e-03
-1.601696014404296875e-03
-1.522779464721679688e-03
-1.626014709472656250e-03
-1.576185226440429688e-03
-1.550316810607910156e-03
-1.498341560363769531e-03
-1.563906669616699219e-03
-1.574158668518066406e-03
-1.592159271240234375e-03
-1.612663269042968750e-03
-1.546502113342285156e-03
-1.583576202392578125e-03
-1.550674438476562500e-03
-1.500248908996582031e-03
-1.480102539062500000e-03
-1.559138298034667969e-03
-1.825928688049316406e-03
-1.830339431762695312e-03
-1.800298690795898438e-03
-1.748204231262207031e-03
-1.775026321411132812e-03
-1.748919486999511719e-03
-1.667141914367675781e-03
-1.660346984863281250e-03
-1.720309257507324219e-03
-1.744031906127929688e-03
-1.746416091918945312e-03
-1.716494560241699219e-03
-1.689672470092773438e-03
-1.676201820373535156e-03
-1.653313636779785156e-03
-1.692175865173339844e-03
-1.742362976074218750e-03
-1.730680465698242188e-03
-1.699090003967285156e-03
-1.732945442199707031e-03
-1.682162284851074219e-03
-1.642465591430664062e-03
-1.636981964111328125e-03
-1.648187637329101562e-03
-1.638412475585937500e-03
-1.678824424743652344e-03
-1.730799674987792969e-03
-1.691222190856933594e-03
-1.672029495239257812e-03
-1.600623130798339844e-03
-1.597523689270019531e-03
-1.636981964111328125e-03
-1.630663871765136719e-03
-1.754164695739746094e-03
-1.762747764587402344e-03
-1.707792282104492188e-03
-1.676321029663085938e-03
-1.759290695190429688e-03
-1.767277717590332031e-03
-1.753687858581542969e-03
-1.664400100708007812e-03
-1.666307449340820312e-03
-1.763224601745605469e-03
-1.816272735595703125e-03
-1.709699630737304688e-03
-1.657128334045410156e-03
-1.660585403442382812e-03
-1.676201820373535156e-03
-1.692652702331542969e-03
-1.673817634582519531e-03
-1.643180847167968750e-03
-1.642227172851562500e-03
-1.714587211608886719e-03
-1.725077629089355469e-03
-1.701474189758300781e-03
-1.566410064697265625e-03
-1.581549644470214844e-03
-1.628160476684570312e-03
-1.716017723083496094e-03
-1.695752143859863281e-03
-1.634478569030761719e-03
-1.608610153198242188e-03
-1.643657684326171875e-03
-1.688957214355468750e-03
-1.545429229736328125e-03
-1.539230346679687500e-03
-1.574873924255371094e-03
-1.716494560241699219e-03
-1.650333404541015625e-03
-1.570582389831542969e-03
-1.547336578369140625e-03
-1.594424247741699219e-03
-1.593947410583496094e-03
-1.496434211730957031e-03
-1.588463783264160156e-03
-1.628160476684570312e-03
-1.744866371154785156e-03
-1.487612724304199219e-03
-1.466512680053710938e-03
-1.619458198547363281e-03
-1.672148704528808594e-03
-1.490354537963867188e-03
-1.333117485046386719e-03
-1.587390899658203125e-03
-1.672744750976562500e-03
-1.699447631835937500e-03
-1.397013664245605469e-03
-1.567959785461425781e-03
-1.598477363586425781e-03
-1.547098159790039062e-03
-1.405239105224609375e-03
-1.550912857055664062e-03
-1.676559448242187500e-03
-1.441359519958496094e-03
-1.376509666442871094e-03
-1.486301422119140625e-03
-1.768231391906738281e-03
-1.481652259826660156e-03
-1.314163208007812500e-03
-1.338839530944824219e-03
-1.805543899536132812e-03
-1.665472984313964844e-03
-1.450300216674804688e-03
-1.265525817871093750e-03
-1.470446586608886719e-03
-1.573801040649414062e-03
-1.473426818847656250e-03
-1.491546630859375000e-03
-1.334071159362792969e-03
-1.489758491516113281e-03
-1.499414443969726562e-03
-1.659631729125976562e-03
-1.476168632507324219e-03
-1.384615898132324219e-03
-1.257538795471191406e-03
-1.568317413330078125e-03
-1.742124557495117188e-03
-1.708269119262695312e-03
-1.562952995300292969e-03
-1.197338104248046875e-03
-1.492857933044433594e-03
-1.663088798522949219e-03
-2.080798149108886719e-03
-1.249194145202636719e-03
-9.775161743164062500e-04
-1.304864883422851562e-03
-2.341985702514648438e-03
-1.744508743286132812e-03
9.191036224365234375e-05
1.147985458374023438e-04
-1.057386398315429688e-03
-2.646327018737792969e-03
-5.834102630615234375e-04
3.011226654052734375e-04
-8.463859558105468750e-06
-2.186179161071777344e-03
-1.972079277038574219e-03
-4.262924194335937500e-04
-2.063512802124023438e-04
-1.012444496154785156e-03
-2.387285232543945312e-03
-1.589655876159667969e-03
-1.197338104248046875e-03
-9.769201278686523438e-04
-1.729965209960937500e-03
-1.801967620849609375e-03
-1.564621925354003906e-03
-1.154065132141113281e-03
-1.253962516784667969e-03
-1.607179641723632812e-03
-1.576781272888183594e-03
-1.559019088745117188e-03
-1.269221305847167969e-03
-1.483678817749023438e-03
-1.344561576843261719e-03
-1.502752304077148438e-03
-1.447558403015136719e-03
-1.546621322631835938e-03
-1.408934593200683594e-03
-1.251816749572753906e-03
-1.405835151672363281e-03
-1.536369323730468750e-03
-1.596927642822265625e-03
-1.141667366027832031e-03
-1.265525817871093750e-03
-1.416921615600585938e-03
-1.698374748229980469e-03
-1.352667808532714844e-03
-1.203775405883789062e-03
-1.401782035827636719e-03
-1.526474952697753906e-03
-1.500129699707031250e-03
-1.217961311340332031e-03
-1.356482505798339844e-03
-1.427650451660156250e-03
-1.465797424316406250e-03
-1.260399818420410156e-03
-1.373887062072753906e-03
-1.396179199218750000e-03
-1.366972923278808594e-03
-1.297235488891601562e-03
-1.247048377990722656e-03
-1.439690589904785156e-03
-1.381278038024902344e-03
-1.336574554443359375e-03
-1.201391220092773438e-03
-1.377940177917480469e-03
-1.436471939086914062e-03
-1.303315162658691406e-03
-1.263499259948730469e-03
-1.291990280151367188e-03
-1.428246498107910156e-03
-1.305460929870605469e-03
-1.317739486694335938e-03
-1.247048377990722656e-03
-1.362681388854980469e-03
-1.354694366455078125e-03
-1.257419586181640625e-03
-1.205921173095703125e-03
-1.262664794921875000e-03
-1.326680183410644531e-03
-1.206874847412109375e-03
-1.254796981811523438e-03
-1.224875450134277344e-03
-1.398682594299316406e-03
-1.251935958862304688e-03
-1.240253448486328125e-03
-1.207113265991210938e-03
-1.282334327697753906e-03
-1.383423805236816406e-03
-1.230835914611816406e-03
-1.200914382934570312e-03
-1.172780990600585938e-03
-1.317739486694335938e-03
-1.235842704772949219e-03
-1.210212707519531250e-03
-1.174330711364746094e-03
-1.260876655578613281e-03
-1.240730285644531250e-03
-1.278162002563476562e-03
-1.247167587280273438e-03
-1.150965690612792969e-03
-1.219034194946289062e-03
-1.194834709167480469e-03
-1.318812370300292969e-03
-1.107096672058105469e-03
-1.179218292236328125e-03
-1.151680946350097656e-03
-1.272439956665039062e-03
-1.207232475280761719e-03
-1.196026802062988281e-03
-1.145243644714355469e-03
-1.162528991699218750e-03
-1.265287399291992188e-03
-1.115202903747558594e-03
-1.171827316284179688e-03
-1.098990440368652344e-03
-1.217007637023925781e-03
-1.147031784057617188e-03
-1.169919967651367188e-03
-1.102924346923828125e-03
-1.140594482421875000e-03
-1.211881637573242188e-03
-1.115560531616210938e-03
-1.172542572021484375e-03
-1.094937324523925781e-03
-1.165986061096191406e-03
-1.083374023437500000e-03
-1.139283180236816406e-03
-1.098871231079101562e-03
-1.153945922851562500e-03
-1.118183135986328125e-03
-1.039624214172363281e-03
-1.104831695556640625e-03
-1.125097274780273438e-03
-1.152992248535156250e-03
-1.102685928344726562e-03
-1.151323318481445312e-03
-1.052856445312500000e-03
-1.099228858947753906e-03
-1.116156578063964844e-03
-1.093626022338867188e-03
-1.092791557312011719e-03
-1.085400581359863281e-03
-1.038432121276855469e-03
-1.070141792297363281e-03
-1.143097877502441406e-03
-1.062870025634765625e-03
-1.059651374816894531e-03
-1.052379608154296875e-03
-1.056075096130371094e-03
-1.083016395568847656e-03
-9.582042694091796875e-04
-8.759498596191406250e-04
-8.897781372070312500e-04
-9.618997573852539062e-04
-9.286403656005859375e-04
-8.364915847778320312e-04
-8.304119110107421875e-04
-8.950233459472656250e-04
-9.127855300903320312e-04
-8.378028869628906250e-04
-8.161067962646484375e-04
-8.707046508789062500e-04
-9.669065475463867188e-04
-8.822679519653320312e-04
-9.230375289916992188e-04
-1.009106636047363281e-03
-1.013755798339843750e-03
-1.053214073181152344e-03
-9.495019912719726562e-04
-9.230375289916992188e-04
-1.031756401062011719e-03
-1.019597053527832031e-03
-9.608268737792968750e-04
-9.138584136962890625e-04
-9.591579437255859375e-04
-9.952783584594726562e-04
-9.827613830566406250e-04
-9.652376174926757812e-04
-9.037256240844726562e-04
-9.949207305908203125e-04
-9.983777999877929688e-04
-9.853839874267578125e-04
