0.000000000000000000e+00
0.000000000000000000e+00
0.000000000000000000e+00
0.000000000000000000e+00
0.000000000000000000e+00
0.000000000000000000e+00
0.000000000000000000e+00
0.000000000000000000e+00
0.000000000000000000e+00
0.000000000000000000e+00
0.000000000000000000e+00
0.000000000000000000e+00
0.000000000000000000e+00
0.000000000000000000e+00
0.000000000000000000e+00
0.000000000000000000e+00
0.000000000000000000e+00
0.000000000000000000e+00
0.000000000000000000e+00
0.000000000000000000e+00
0.000000000000000000e+00
0.000000000000000000e+00
0.000000000000000000e+00
0.000000000000000000e+00
0.000000000000000000e+00
0.000000000000000000e+00
0.000000000000000000e+00
0.000000000000000000e+00
0.000000000000000000e+00
0.000000000000000000e+00
0.000000000000000000e+00
0.000000000000000000e+00
0.000000000000000000e+00
0.000000000000000000e+00
0.000000000000000000e+00
0.000000000000000000e+00
0.000000000000000000e+00
0.000000000000000000e+00
0.000000000000000000e+00
0.000000000000000000e+00
0.000000000000000000e+00
0.000000000000000000e+00
0.000000000000000000e+00
0.000000000000000000e+00
0.000000000000000000e+00
0.000000000000000000e+00
0.000000000000000000e+00
0.000000000000000000e+00
0.000000000000000000e+00
0.000000000000000000e+00
0.000000000000000000e+00
0.000000000000000000e+00
0.000000000000000000e+00
0.000000000000000000e+00
0.000000000000000000e+00
0.000000000000000000e+00
0.000000000000000000e+00
0.000000000000000000e+00
0.000000000000000000e+00
0.000000000000000000e+00
0.000000000000000000e+00
0.000000000000000000e+00
0.000000000000000000e+00
0.000000000000000000e+00
0.000000000000000000e+00
0.000000000000000000e+00
0.000000000000000000e+00
0.000000000000000000e+00
0.000000000000000000e+00
0.000000000000000000e+00
0.000000000000000000e+00
0.000000000000000000e+00
0.000000000000000000e+00
0.000000000000000000e+00
0.000000000000000000e+00
0.000000000000000000e+00
0.000000000000000000e+00
0.000000000000000000e+00
0.000000000000000000e+00
0.000000000000000000e+00
0.000000000000000000e+00
0.000000000000000000e+00
0.000000000000000000e+00
0.000000000000000000e+00
0.000000000000000000e+00
0.000000000000000000e+00
0.000000000000000000e+00
0.000000000000000000e+00
0.000000000000000000e+00
0.000000000000000000e+00
0.000000000000000000e+00
0.000000000000000000e+00
0.000000000000000000e+00
0.000000000000000000e+00
0.000000000000000000e+00
0.000000000000000000e+00
0.000000000000000000e+00
0.000000000000000000e+00
0.000000000000000000e+00
0.000000000000000000e+00
0.000000000000000000e+00
0.000000000000000000e+00
0.000000000000000000e+00
0.000000000000000000e+00
0.000000000000000000e+00
0.000000000000000000e+00
0.000000000000000000e+00
0.000000000000000000e+00
0.000000000000000000e+00
0.000000000000000000e+00
0.000000000000000000e+00
0.000000000000000000e+00
0.000000000000000000e+00
0.000000000000000000e+00
0.000000000000000000e+00
0.000000000000000000e+00
0.000000000000000000e+00
0.000000000000000000e+00
0.000000000000000000e+00
0.000000000000000000e+00
0.000000000000000000e+00
0.000000000000000000e+00
0.000000000000000000e+00
0.000000000000000000e+00
0.000000000000000000e+00
0.000000000000000000e+00
0.000000000000000000e+00
0.000000000000000000e+00
0.000000000000000000e+00
0.000000000000000000e+00
0.000000000000000000e+00
0.000000000000000000e+00
0.000000000000000000e+00
0.000000000000000000e+00
0.000000000000000000e+00
0.000000000000000000e+00
0.000000000000000000e+00
0.000000000000000000e+00
0.000000000000000000e+00
0.000000000000000000e+00
0.000000000000000000e+00
0.000000000000000000e+00
0.000000000000000000e+00
0.000000000000000000e+00
0.000000000000000000e+00
0.000000000000000000e+00
0.000000000000000000e+00
0.000000000000000000e+00
0.000000000000000000e+00
0.000000000000000000e+00
0.000000000000000000e+00
0.000000000000000000e+00
0.000000000000000000e+00
0.000000000000000000e+00
0.000000000000000000e+00
0.000000000000000000e+00
0.000000000000000000e+00
0.000000000000000000e+00
0.000000000000000000e+00
0.000000000000000000e+00
0.000000000000000000e+00
0.000000000000000000e+00
0.000000000000000000e+00
0.000000000000000000e+00
0.000000000000000000e+00
0.000000000000000000e+00
0.000000000000000000e+00
0.000000000000000000e+00
0.000000000000000000e+00
0.000000000000000000e+00
0.000000000000000000e+00
0.000000000000000000e+00
0.000000000000000000e+00
0.000000000000000000e+00
0.000000000000000000e+00
0.000000000000000000e+00
0.000000000000000000e+00
0.000000000000000000e+00
0.000000000000000000e+00
0.000000000000000000e+00
0.000000000000000000e+00
0.000000000000000000e+00
0.000000000000000000e+00
0.000000000000000000e+00
0.000000000000000000e+00
0.000000000000000000e+00
0.000000000000000000e+00
0.000000000000000000e+00
0.000000000000000000e+00
0.000000000000000000e+00
0.000000000000000000e+00
0.000000000000000000e+00
0.000000000000000000e+00
0.000000000000000000e+00
0.000000000000000000e+00
0.000000000000000000e+00
0.000000000000000000e+00
0.000000000000000000e+00
0.000000000000000000e+00
0.000000000000000000e+00
0.000000000000000000e+00
0.000000000000000000e+00
0.000000000000000000e+00
0.000000000000000000e+00
0.000000000000000000e+00
0.000000000000000000e+00
0.000000000000000000e+00
0.000000000000000000e+00
0.000000000000000000e+00
0.000000000000000000e+00
0.000000000000000000e+00
0.000000000000000000e+00
0.000000000000000000e+00
0.000000000000000000e+00
0.000000000000000000e+00
0.000000000000000000e+00
0.000000000000000000e+00
0.000000000000000000e+00
0.000000000000000000e+00
0.000000000000000000e+00
0.000000000000000000e+00
0.000000000000000000e+00
0.000000000000000000e+00
0.000000000000000000e+00
0.000000000000000000e+00
0.000000000000000000e+00
0.000000000000000000e+00
0.000000000000000000e+00
0.000000000000000000e+00
0.000000000000000000e+00
0.000000000000000000e+00
0.000000000000000000e+00
0.000000000000000000e+00
0.000000000000000000e+00
0.000000000000000000e+00
0.000000000000000000e+00
0.000000000000000000e+00
0.000000000000000000e+00
0.000000000000000000e+00
0.000000000000000000e+00
0.000000000000000000e+00
0.000000000000000000e+00
0.000000000000000000e+00
0.000000000000000000e+00
0.000000000000000000e+00
0.000000000000000000e+00
0.000000000000000000e+00
-1.192092895507812500e-07
1.192092895507812500e-07
-1.192092895507812500e-07
1.192092895507812500e-07
-2.384185791015625000e-07
2.384185791015625000e-07
-3.576278686523437500e-07
3.576278686523437500e-07
-4.768371582031250000e-07
5.960464477539062500e-07
-7.152557373046875000e-07
8.344650268554687500e-07
-1.311302185058593750e-06
2.384185791015625000e-06
-9.894371032714843750e-06
-5.352497100830078125e-05
-6.687641143798828125e-05
-8.273124694824218750e-05
-1.001358032226562500e-04
-1.136064529418945312e-04
-1.276731491088867188e-04
-1.430511474609375000e-04
-1.603364944458007812e-04
-1.751184463500976562e-04
-1.904964447021484375e-04
-2.028942108154296875e-04
-2.244710922241210938e-04
-2.313852310180664062e-04
-2.661943435668945312e-04
-3.107786178588867188e-04
-3.225803375244140625e-04
-3.312826156616210938e-04
-3.563165664672851562e-04
-3.706216812133789062e-04
-3.829002380371093750e-04
-4.130601882934570312e-04
-4.167556762695312500e-04
-4.323720932006835938e-04
-4.560947418212890625e-04
-4.652738571166992188e-04
-4.875659942626953125e-04
-5.065202713012695312e-04
-5.307197570800781250e-04
-5.320310592651367188e-04
-5.456209182739257812e-04
-6.260871887207031250e-04
-6.771087646484375000e-04
-6.926059722900390625e-04
-6.974935531616210938e-04
-7.134675979614257812e-04
-7.463693618774414062e-04
-7.548332214355468750e-04
-7.703304290771484375e-04
-7.935762405395507812e-04
-8.322000503540039062e-04
-8.562803268432617188e-04
-8.615255355834960938e-04
-8.744001388549804688e-04
-8.734464645385742188e-04
-9.248256683349609375e-04
-9.486675262451171875e-04
-9.862184524536132812e-04
-1.081943511962890625e-03
-1.075863838195800781e-03
-1.127719879150390625e-03
-1.157045364379882812e-03
-1.159667968750000000e-03
-1.177310943603515625e-03
-1.196742057800292969e-03
-1.230835914611816406e-03
-1.232624053955078125e-03
-1.252174377441406250e-03
-1.285791397094726562e-03
-1.305341720581054688e-03
-1.328110694885253906e-03
-1.384496688842773438e-03
-1.358270645141601562e-03
-1.382589340209960938e-03
-1.542568206787109375e-03
-1.581430435180664062e-03
-1.565575599670410156e-03
-1.634836196899414062e-03
-1.654148101806640625e-03
-1.659870147705078125e-03
-1.669883728027343750e-03
-1.716256141662597656e-03
-1.724839210510253906e-03
-1.740574836730957031e-03
-1.736044883728027344e-03
-1.783013343811035156e-03
-1.810550689697265625e-03
-1.827120780944824219e-03
-1.862883567810058594e-03
-1.807093620300292969e-03
-2.115607261657714844e-03
-2.267241477966308594e-03
-2.231121063232421875e-03
-2.320647239685058594e-03
-2.294659614562988281e-03
-2.280831336975097656e-03
-2.270460128784179688e-03
-2.292156219482421875e-03
-2.292633056640625000e-03
-2.265214920043945312e-03
-2.251386642456054688e-03
-2.238154411315917969e-03
-2.247214317321777344e-03
-2.255558967590332031e-03
-2.287387847900390625e-03
-2.239465713500976562e-03
-2.267241477966308594e-03
-2.423882484436035156e-03
-2.362847328186035156e-03
-2.431750297546386719e-03
-2.415657043457031250e-03
-2.398729324340820312e-03
-2.390265464782714844e-03
-2.405285835266113281e-03
-2.453804016113281250e-03
-2.385616302490234375e-03
-2.415537834167480469e-03
-2.388119697570800781e-03
-2.371072769165039062e-03
-2.359747886657714844e-03
-2.366065979003906250e-03
-2.365827560424804688e-03
-2.349376678466796875e-03
-2.476096153259277344e-03
-2.493619918823242188e-03
-2.551198005676269531e-03
-2.502322196960449219e-03
-2.507686614990234375e-03
-2.539396286010742188e-03
-2.475976943969726562e-03
-2.514004707336425781e-03
-2.515316009521484375e-03
-2.503514289855957031e-03
-2.537608146667480469e-03
-2.521276473999023438e-03
-2.478718757629394531e-03
-2.490043640136718750e-03
-2.471446990966796875e-03
-2.469420433044433594e-03
-2.581477165222167969e-03
-2.710461616516113281e-03
-2.631783485412597656e-03
-2.633690834045410156e-03
-2.674937248229980469e-03
-2.671360969543457031e-03
-2.704262733459472656e-03
-2.655863761901855469e-03
-2.680659294128417969e-03
-2.666234970092773438e-03
-2.660393714904785156e-03
-2.646207809448242188e-03
-2.601623535156250000e-03
-2.620577812194824219e-03
-2.595067024230957031e-03
-2.669095993041992188e-03
-2.649068832397460938e-03
-2.683281898498535156e-03
-2.685904502868652344e-03
-2.683877944946289062e-03
-2.669095993041992188e-03
-2.639770507812500000e-03
-2.689480781555175781e-03
-2.633333206176757812e-03
-2.661108970642089844e-03
-2.685070037841796875e-03
-2.693057060241699219e-03
-2.608180046081542969e-03
-2.646088600158691406e-03
-2.667546272277832031e-03
-2.634882926940917969e-03
-2.641320228576660156e-03
-2.583742141723632812e-03
-2.786874771118164062e-03
-2.782821655273437500e-03
-2.779603004455566406e-03
-2.817749977111816406e-03
-2.785205841064453125e-03
-2.733469009399414062e-03
-2.752423286437988281e-03
-2.798080444335937500e-03
-2.777338027954101562e-03
-2.719879150390625000e-03
-2.730131149291992188e-03
-2.765178680419921875e-03
-2.728104591369628906e-03
-2.717614173889160156e-03
-2.676606178283691406e-03
-2.759099006652832031e-03
-2.781271934509277344e-03
-2.890706062316894531e-03
-2.910852432250976562e-03
-2.931714057922363281e-03
-2.921938896179199219e-03
-2.840042114257812500e-03
-2.905488014221191406e-03
-2.845525741577148438e-03
-2.863168716430664062e-03
-2.840757369995117188e-03
-2.835035324096679688e-03
-2.836942672729492188e-03
-2.824902534484863281e-03
-2.852320671081542969e-03
-2.800464630126953125e-03
-2.783060073852539062e-03
-2.783179283142089844e-03
-2.972483634948730469e-03
-2.993702888488769531e-03
-2.983689308166503906e-03
-2.966642379760742188e-03
-2.987980842590332031e-03
-2.955436706542968750e-03
-2.984046936035156250e-03
-2.969980239868164062e-03
-2.990245819091796875e-03
-2.960085868835449219e-03
-2.958178520202636719e-03
-2.984285354614257812e-03
-2.852678298950195312e-03
-2.917051315307617188e-03
-2.967357635498046875e-03
-2.880692481994628906e-03
-2.933144569396972656e-03
-3.146767616271972656e-03
-3.113150596618652344e-03
-3.099322319030761719e-03
-3.098964691162109375e-03
-3.031134605407714844e-03
-3.046989440917968750e-03
-3.020048141479492188e-03
-2.973675727844238281e-03
-3.063797950744628906e-03
-3.024935722351074219e-03
-3.011703491210937500e-03
-2.969622611999511719e-03
-3.016829490661621094e-03
-2.962946891784667969e-03
-3.000855445861816406e-03
-2.959132194519042969e-03
-3.068566322326660156e-03
-3.119349479675292969e-03
-3.116250038146972656e-03
-3.084063529968261719e-03
-3.052711486816406250e-03
-3.072142601013183594e-03
-3.061652183532714844e-03
-3.012537956237792969e-03
-3.004431724548339844e-03
-2.988696098327636719e-03
-2.974987030029296875e-03
-2.982258796691894531e-03
-3.010749816894531250e-03
-2.969861030578613281e-03
-2.963900566101074219e-03
-2.969145774841308594e-03
-3.037333488464355469e-03
-3.182888031005859375e-03
-3.162622451782226562e-03
-3.154873847961425781e-03
-3.161907196044921875e-03
-3.117918968200683594e-03
-3.125071525573730469e-03
-3.117203712463378906e-03
-3.112077713012695312e-03
-3.096818923950195312e-03
-3.123402595520019531e-03
-3.122091293334960938e-03
-3.042936325073242188e-03
-3.064870834350585938e-03
-3.046393394470214844e-03
-3.029346466064453125e-03
-3.108263015747070312e-03
-3.294467926025390625e-03
-3.220438957214355469e-03
-3.231287002563476562e-03
-3.179907798767089844e-03
-3.239274024963378906e-03
-3.206133842468261719e-03
-3.162860870361328125e-03
-3.200173377990722656e-03
-3.189802169799804688e-03
-3.157854080200195312e-03
-3.160119056701660156e-03
-3.112077713012695312e-03
-3.145337104797363281e-03
-3.111958503723144531e-03
-3.096699714660644531e-03
-3.077864646911621094e-03
-3.296613693237304688e-03
-3.286242485046386719e-03
-3.224730491638183594e-03
-3.258943557739257812e-03
-3.272891044616699219e-03
-3.227353096008300781e-03
-3.222227096557617188e-03
-3.236770629882812500e-03
-3.193140029907226562e-03
-3.201842308044433594e-03
-3.170728683471679688e-03
-3.189563751220703125e-03
-3.198623657226562500e-03
-3.170728683471679688e-03
-3.197908401489257812e-03
-3.154158592224121094e-03
-3.227949142456054688e-03
-3.313779830932617188e-03
-3.258943557739257812e-03
-3.348946571350097656e-03
-3.292441368103027344e-03
-3.319740295410156250e-03
-3.272771835327148438e-03
-3.280282020568847656e-03
-3.254294395446777344e-03
-3.274202346801757812e-03
-3.213644027709960938e-03
-3.264307975769042969e-03
-3.257274627685546875e-03
-3.201842308044433594e-03
-3.234148025512695312e-03
-3.226876258850097656e-03
-3.205776214599609375e-03
-3.364443778991699219e-03
-3.356814384460449219e-03
-3.380775451660156250e-03
-3.417253494262695312e-03
-3.387928009033203125e-03
-3.354430198669433594e-03
-3.373622894287109375e-03
-3.311038017272949219e-03
-3.286719322204589844e-03
-3.320932388305664062e-03
-3.344297409057617188e-03
-3.304481506347656250e-03
-3.315448760986328125e-03
-3.305077552795410156e-03
-3.350138664245605469e-03
-3.296494483947753906e-03
-3.356456756591796875e-03
-3.468751907348632812e-03
-3.451824188232421875e-03
-3.483295440673828125e-03
-3.426909446716308594e-03
-3.378510475158691406e-03
-3.462433815002441406e-03
-3.432750701904296875e-03
-3.428339958190917969e-03
-3.416776657104492188e-03
-3.366470336914062500e-03
-3.324031829833984375e-03
-3.340363502502441406e-03
-3.379940986633300781e-03
-3.322243690490722656e-03
-3.295302391052246094e-03
-3.325104713439941406e-03
-3.513693809509277344e-03
-3.476381301879882812e-03
-3.482699394226074219e-03
-3.459453582763671875e-03
-3.464460372924804688e-03
-3.459215164184570312e-03
-3.479242324829101562e-03
-3.488183021545410156e-03
-3.488302230834960938e-03
-3.411412239074707031e-03
-3.408908843994140625e-03
-3.453850746154785156e-03
-3.411769866943359375e-03
-3.357648849487304688e-03
-3.368496894836425781e-03
-3.295302391052246094e-03
-3.477096557617187500e-03
-3.549456596374511719e-03
-3.497004508972167969e-03
-3.494501113891601562e-03
-3.500819206237792969e-03
-3.506541252136230469e-03
-3.480672836303710938e-03
-3.453969955444335938e-03
-3.445863723754882812e-03
-3.426909446716308594e-03
-3.435015678405761719e-03
-3.434896469116210938e-03
-3.409743309020996094e-03
-3.371357917785644531e-03
-3.403902053833007812e-03
-3.348469734191894531e-03
-3.488421440124511719e-03
-3.622531890869140625e-03
-3.538846969604492188e-03
-3.605246543884277344e-03
-3.510475158691406250e-03
-3.552556037902832031e-03
-3.522872924804687500e-03
-3.466367721557617188e-03
-3.499984741210937500e-03
-3.509163856506347656e-03
-3.482937812805175781e-03
-3.481864929199218750e-03
-3.448963165283203125e-03
-3.470659255981445312e-03
-3.517031669616699219e-03
-3.454804420471191406e-03
-3.425121307373046875e-03
-3.584504127502441406e-03
-3.612995147705078125e-03
-3.622055053710937500e-03
-3.533005714416503906e-03
-3.570199012756347656e-03
-3.562927246093750000e-03
-3.556609153747558594e-03
-3.574967384338378906e-03
-3.545761108398437500e-03
-3.542900085449218750e-03
-3.534793853759765625e-03
-3.487348556518554688e-03
-3.443121910095214844e-03
-3.473520278930664062e-03
-3.487110137939453125e-03
-3.511428833007812500e-03
-3.448486328125000000e-03
-3.458619117736816406e-03
-3.424048423767089844e-03
-3.468871116638183594e-03
-3.464579582214355469e-03
-3.451466560363769531e-03
-3.456711769104003906e-03
-3.374814987182617188e-03
-3.373384475708007812e-03
-3.356337547302246094e-03
-3.334045410156250000e-03
-3.355860710144042969e-03
-3.362059593200683594e-03
-3.308415412902832031e-03
-3.357410430908203125e-03
-3.345966339111328125e-03
-3.262042999267578125e-03
-3.310084342956542969e-03
-3.341674804687500000e-03
-3.325104713439941406e-03
-3.359675407409667969e-03
-3.268003463745117188e-03
-3.286480903625488281e-03
-3.279805183410644531e-03
-3.266096115112304688e-03
-3.239393234252929688e-03
-3.226876258850097656e-03
-3.253102302551269531e-03
-3.171086311340332031e-03
-3.161907196044921875e-03
-3.175735473632812500e-03
-3.140807151794433594e-03
-3.131985664367675781e-03
-3.192901611328125000e-03
-3.139019012451171875e-03
-3.083825111389160156e-03
-3.080964088439941406e-03
-3.107786178588867188e-03
-3.120779991149902344e-03
-3.057956695556640625e-03
-3.108620643615722656e-03
-3.035545349121093750e-03
-3.050923347473144531e-03
-3.047347068786621094e-03
-2.997756004333496094e-03
-2.983212471008300781e-03
-3.013968467712402344e-03
-2.998590469360351562e-03
-2.969622611999511719e-03
-3.015279769897460938e-03
-2.968072891235351562e-03
-2.967000007629394531e-03
-2.967357635498046875e-03
-2.962112426757812500e-03
-2.923727035522460938e-03
-2.967119216918945312e-03
-2.910971641540527344e-03
-2.930998802185058594e-03
-2.893924713134765625e-03
-2.852201461791992188e-03
-2.875089645385742188e-03
-2.885460853576660156e-03
-2.851486206054687500e-03
-2.903580665588378906e-03
-2.904057502746582031e-03
-2.870678901672363281e-03
-2.893924713134765625e-03
-2.831697463989257812e-03
-2.862811088562011719e-03
-2.824902534484863281e-03
-2.786040306091308594e-03
-2.820253372192382812e-03
-2.816200256347656250e-03
-2.770304679870605469e-03
-2.729177474975585938e-03
-2.771615982055664062e-03
-2.778291702270507812e-03
-2.745985984802246094e-03
-2.750277519226074219e-03
-2.680301666259765625e-03
-2.716898918151855469e-03
-2.730727195739746094e-03
-2.695560455322265625e-03
-2.712607383728027344e-03
-2.697587013244628906e-03
-2.668619155883789062e-03
-2.672791481018066406e-03
-2.662301063537597656e-03
-2.618908882141113281e-03
-2.647876739501953125e-03
-2.640724182128906250e-03
-2.615451812744140625e-03
-2.585411071777343750e-03
-2.596020698547363281e-03
-2.564191818237304688e-03
-2.561211585998535156e-03
-2.560138702392578125e-03
-2.571344375610351562e-03
-2.563357353210449219e-03
-2.565026283264160156e-03
-2.539277076721191406e-03
-2.535343170166015625e-03
-2.566576004028320312e-03
-2.516388893127441406e-03
-2.543091773986816406e-03
-2.506732940673828125e-03
-2.547264099121093750e-03
-2.498865127563476562e-03
-2.496719360351562500e-03
-2.487659454345703125e-03
-2.517819404602050781e-03
-2.479553222656250000e-03
-2.444863319396972656e-03
-2.433061599731445312e-03
-2.406954765319824219e-03
-2.381920814514160156e-03
-2.388000488281250000e-03
-2.424597740173339844e-03
-2.395629882812500000e-03
-2.407431602478027344e-03
-2.377748489379882812e-03
-2.380132675170898438e-03
-2.367377281188964844e-03
-2.372860908508300781e-03
-2.361059188842773438e-03
-2.302765846252441406e-03
-2.360582351684570312e-03
-2.383232116699218750e-03
-2.275586128234863281e-03
-2.303600311279296875e-03
-2.290129661560058594e-03
-2.325773239135742188e-03
-2.321839332580566406e-03
-2.260923385620117188e-03
-2.264499664306640625e-03
-2.248764038085937500e-03
-2.274274826049804688e-03
-2.264380455017089844e-03
-2.190589904785156250e-03
-2.234935760498046875e-03
-2.283453941345214844e-03
-2.243041992187500000e-03
-2.162575721740722656e-03
-2.212405204772949219e-03
-2.144932746887207031e-03
-2.186655998229980469e-03
-2.201318740844726562e-03
-2.177000045776367188e-03
-2.125144004821777344e-03
-2.167820930480957031e-03
-2.178192138671875000e-03
-2.127528190612792969e-03
-2.133846282958984375e-03
-2.122044563293457031e-03
-2.156138420104980469e-03
-2.123713493347167969e-03
-2.107381820678710938e-03
-2.112030982971191406e-03
-2.133846282958984375e-03
-2.139568328857421875e-03
-2.115845680236816406e-03
-2.050042152404785156e-03
-2.064347267150878906e-03
-2.091884613037109375e-03
-2.091288566589355469e-03
-2.101659774780273438e-03
-1.988887786865234375e-03
-2.020835876464843750e-03
-2.099514007568359375e-03
-2.024769783020019531e-03
-1.970171928405761719e-03
-2.055168151855468750e-03
-1.947879791259765625e-03
-2.007603645324707031e-03
-1.990795135498046875e-03
-1.895070075988769531e-03
-1.931548118591308594e-03
-1.980066299438476562e-03
-1.987576484680175781e-03
-1.899480819702148438e-03
-1.925468444824218750e-03
-1.955032348632812500e-03
-1.951575279235839844e-03
-1.908183097839355469e-03
-1.886963844299316406e-03
-1.905441284179687500e-03
-1.940369606018066406e-03
-1.946091651916503906e-03
-1.913309097290039062e-03
-1.872181892395019531e-03
-1.889348030090332031e-03
-1.928329467773437500e-03
-1.930594444274902344e-03
-1.828670501708984375e-03
-1.855969429016113281e-03
-1.909136772155761719e-03
-1.906037330627441406e-03
-1.886606216430664062e-03
-1.799225807189941406e-03
-1.799941062927246094e-03
-1.891374588012695312e-03
-1.878261566162109375e-03
-1.832485198974609375e-03
-1.740932464599609375e-03
-1.699924468994140625e-03
-1.833319664001464844e-03
-1.812577247619628906e-03
-1.752018928527832031e-03
-1.711606979370117188e-03
-1.822113990783691406e-03
-1.856207847595214844e-03
-1.786231994628906250e-03
-1.667857170104980469e-03
-1.609086990356445312e-03
-1.736879348754882812e-03
-1.767516136169433594e-03
-1.694798469543457031e-03
-1.635313034057617188e-03
-1.679420471191406250e-03
-1.750826835632324219e-03
-1.738190650939941406e-03
-1.641750335693359375e-03
-1.601338386535644531e-03
-1.670479774475097656e-03
-1.692533493041992188e-03
-1.655817031860351562e-03
-1.461863517761230469e-03
-1.659393310546875000e-03
-1.921892166137695312e-03
-1.950025558471679688e-03
-1.745104789733886719e-03
-1.458525657653808594e-03
-1.805782318115234375e-03
-1.817941665649414062e-03
-1.845836639404296875e-03
-1.393079757690429688e-03
-2.001523971557617188e-03
-2.538800239562988281e-03
-2.577185630798339844e-03
-2.065300941467285156e-03
-1.320838928222656250e-03
-1.533269882202148438e-03
-1.509189605712890625e-03
-1.559495925903320312e-03
-1.391172409057617188e-03
-1.432180404663085938e-03
-1.559376716613769531e-03
-1.653432846069335938e-03
-1.490235328674316406e-03
-1.369357109069824219e-03
-1.407742500305175781e-03
-1.550674438476562500e-03
-1.484632492065429688e-03
-1.357555389404296875e-03
-1.370549201965332031e-03
-1.536369323730468750e-03
-1.548051834106445312e-03
-1.415491104125976562e-03
-1.324892044067382812e-03
-1.403450965881347656e-03
-1.521706581115722656e-03
-1.428842544555664062e-03
-1.285195350646972656e-03
-1.265406608581542969e-03
-1.406311988830566406e-03
-1.482844352722167969e-03
-1.442432403564453125e-03
-1.340627670288085938e-03
-1.366019248962402344e-03
-1.407980918884277344e-03
-1.385927200317382812e-03
-1.198053359985351562e-03
-1.203656196594238281e-03
-1.318335533142089844e-03
-1.427173614501953125e-03
-1.385688781738281250e-03
-1.304030418395996094e-03
-1.288533210754394531e-03
-1.285195350646972656e-03
-1.284360885620117188e-03
-1.217722892761230469e-03
-1.174807548522949219e-03
-1.228928565979003906e-03
-1.381039619445800781e-03
-1.370310783386230469e-03
-1.226305961608886719e-03
-1.174569129943847656e-03
-1.277208328247070312e-03
-1.285791397094726562e-03
-1.201748847961425781e-03
-1.155257225036621094e-03
-1.165628433227539062e-03
-1.248717308044433594e-03
-1.226305961608886719e-03
-1.211643218994140625e-03
-1.187443733215332031e-03
-1.283288002014160156e-03
-1.300454139709472656e-03
-1.160383224487304688e-03
-1.116633415222167969e-03
-1.075148582458496094e-03
-1.155853271484375000e-03
-1.203775405883789062e-03
-1.169919967651367188e-03
-1.194238662719726562e-03
-1.204609870910644531e-03
-1.218438148498535156e-03
-1.092076301574707031e-03
-1.033425331115722656e-03
-9.989738464355468750e-04
-1.129984855651855469e-03
-1.167535781860351562e-03
-1.184701919555664062e-03
-1.173853874206542969e-03
-1.111984252929687500e-03
-1.124978065490722656e-03
-1.088738441467285156e-03
-1.071453094482421875e-03
-1.035809516906738281e-03
-1.015543937683105469e-03
-1.052618026733398438e-03
-1.080870628356933594e-03
-1.016974449157714844e-03
-1.030564308166503906e-03
-1.036286354064941406e-03
-1.081705093383789062e-03
-1.062870025634765625e-03
-9.722709655761718750e-04
-9.872913360595703125e-04
-9.437799453735351562e-04
-9.751319885253906250e-04
-1.001954078674316406e-03
-9.635686874389648438e-04
-9.680986404418945312e-04
-9.486675262451171875e-04
-9.813308715820312500e-04
-9.675025939941406250e-04
-9.025335311889648438e-04
-8.833408355712890625e-04
-9.593963623046875000e-04
-1.015782356262207031e-03
-9.407997131347656250e-04
-8.951425552368164062e-04
-9.422302246093750000e-04
-9.551048278808593750e-04
-9.300708770751953125e-04
-8.989572525024414062e-04
-9.430646896362304688e-04
-9.292364120483398438e-04
-9.111166000366210938e-04
-9.211301803588867188e-04
-8.834600448608398438e-04
-9.064674377441406250e-04
-8.876323699951171875e-04
-9.225606918334960938e-04
-8.729696273803710938e-04
-8.509159088134765625e-04
-8.817911148071289062e-04
-8.491277694702148438e-04
-8.553266525268554688e-04
-8.877515792846679688e-04
-8.839368820190429688e-04
-9.146928787231445312e-04
-9.055137634277343750e-04
-8.529424667358398438e-04
-8.825063705444335938e-04
-8.320808410644531250e-04
-8.435249328613281250e-04
-8.496046066284179688e-04
-8.555650711059570312e-04
-8.139610290527343750e-04
-8.529424667358398438e-04
-8.422136306762695312e-04
-8.476972579956054688e-04
-8.077621459960937500e-04
-7.203817367553710938e-04
-7.562637329101562500e-04
-7.579326629638671875e-04
-7.485151290893554688e-04
-7.066726684570312500e-04
-7.352828979492187500e-04
-7.567405700683593750e-04
-7.303953170776367188e-04
-7.075071334838867188e-04
-7.157325744628906250e-04
-6.929636001586914062e-04
-7.243156433105468750e-04
-6.892681121826171875e-04
-6.536245346069335938e-04
-6.850957870483398438e-04
-6.934404373168945312e-04
-6.741285324096679688e-04
-6.556510925292968750e-04
-6.308555603027343750e-04
-6.862878799438476562e-04
-7.470846176147460938e-04
-6.593465805053710938e-04
-6.916522979736328125e-04
-6.600618362426757812e-04
-6.588697433471679688e-04
-6.803274154663085938e-04
-7.059574127197265625e-04
-6.669759750366210938e-04
-6.747245788574218750e-04
-6.463527679443359375e-04
-6.183385848999023438e-04
-5.941390991210937500e-04
-5.480051040649414062e-04
-6.319284439086914062e-04
-6.211996078491210938e-04
-5.860328674316406250e-04
-6.302595138549804688e-04
-6.171464920043945312e-04
-6.080865859985351562e-04
-6.155967712402343750e-04
-5.971193313598632812e-04
-5.820989608764648438e-04
-5.977153778076171875e-04
-5.859136581420898438e-04
-5.773305892944335938e-04
-5.614757537841796875e-04
-5.263090133666992188e-04
-5.806684494018554688e-04
-5.784034729003906250e-04
-5.112886428833007812e-04
-4.961490631103515625e-04
-5.568265914916992188e-04
-5.708932876586914062e-04
-5.434751510620117188e-04
-5.444288253784179688e-04
-5.201101303100585938e-04
-5.046129226684570312e-04
-4.998445510864257812e-04
-5.632638931274414062e-04
-4.733800888061523438e-04
-4.668235778808593750e-04
-5.221366882324218750e-04
-5.282163619995117188e-04
-5.011558532714843750e-04
-4.541873931884765625e-04
-4.347562789916992188e-04
-5.055665969848632812e-04
-5.095005035400390625e-04
-4.636049270629882812e-04
-4.358291625976562500e-04
-4.897117614746093750e-04
-4.599094390869140625e-04
-4.112720489501953125e-04
-4.750490188598632812e-04
-4.340410232543945312e-04
-4.732608795166015625e-04
-4.593133926391601562e-04
-4.456043243408203125e-04
-4.498958587646484375e-04
-4.541873931884765625e-04
-4.190206527709960938e-04
-4.237890243530273438e-04
-4.315376281738281250e-04
-4.129409790039062500e-04
-4.197359085083007812e-04
-4.588365554809570312e-04
-4.254579544067382812e-04
-3.612041473388671875e-04
-4.297494888305664062e-04
-4.088878631591796875e-04
-3.679990768432617188e-04
-3.613233566284179688e-04
-3.780126571655273438e-04
-4.209280014038085938e-04
-3.522634506225585938e-04
-3.545284271240234375e-04
-3.718137741088867188e-04
-3.795623779296875000e-04
-3.784894943237304688e-04
-3.148317337036132812e-04
-3.718137741088867188e-04
-3.515481948852539062e-04
-3.705024719238281250e-04
-3.682374954223632812e-04
-2.876520156860351562e-04
-3.319978713989257812e-04
-3.499984741210937500e-04
-3.519058227539062500e-04
-3.248453140258789062e-04
-2.890825271606445312e-04
-2.714395523071289062e-04
-2.601146697998046875e-04
-3.057718276977539062e-04
-2.938508987426757812e-04
-2.819299697875976562e-04
-3.256797790527343750e-04
-2.654790878295898438e-04
-2.522468566894531250e-04
-2.896785736083984375e-04
-2.691745758056640625e-04
-2.579689025878906250e-04
-2.772808074951171875e-04
-2.690553665161132812e-04
-2.437829971313476562e-04
-2.727508544921875000e-04
-2.160072326660156250e-04
-2.547502517700195312e-04
-2.148151397705078125e-04
-2.123117446899414062e-04
-2.210140228271484375e-04
-2.371072769165039062e-04
-2.198219299316406250e-04
-1.814365386962890625e-04
-2.290010452270507812e-04
-2.291202545166015625e-04
-2.717971801757812500e-04
-2.174377441406250000e-04
-2.021789550781250000e-04
-2.232789993286132812e-04
-2.033710479736328125e-04
-1.595020294189453125e-04
-1.665353775024414062e-04
-1.801252365112304688e-04
-9.524822235107421875e-05
-1.580715179443359375e-04
-1.680850982666015625e-04
-1.630783081054687500e-04
-2.191066741943359375e-04
-1.832246780395507812e-04
-1.398324966430664062e-04
-1.178979873657226562e-04
-1.828670501708984375e-04
-1.395940780639648438e-04
-1.374483108520507812e-04
-1.424551010131835938e-04
-9.024143218994140625e-05
-1.755952835083007812e-04
-1.497268676757812500e-04
-1.189708709716796875e-04
-9.453296661376953125e-05
-8.308887481689453125e-05
-1.119375228881835938e-04
-1.080036163330078125e-04
-1.401901245117187500e-04
-1.457929611206054688e-04
-1.275539398193359375e-04
-9.787082672119140625e-05
-1.144409179687500000e-04
-1.300573348999023438e-04
-1.276731491088867188e-04
-1.751184463500976562e-04
-1.789331436157226562e-04
-1.384019851684570312e-04
-1.425743103027343750e-04
-1.384019851684570312e-04
-1.369714736938476562e-04
-1.056194305419921875e-04
-7.283687591552734375e-05
-1.031160354614257812e-04
-1.257658004760742188e-04
-8.702278137207031250e-05
-7.653236389160156250e-05
-7.414817810058593750e-05
-8.392333984375000000e-05
-8.738040924072265625e-05
-8.177757263183593750e-05
-8.416175842285156250e-05
-8.773803710937500000e-05
-7.367134094238281250e-05
-6.914138793945312500e-05
-5.257129669189453125e-05
-7.319450378417968750e-05
-9.024143218994140625e-05
-5.578994750976562500e-05
-7.438659667968750000e-05
-4.315376281738281250e-05
-4.756450653076171875e-05
-6.151199340820312500e-05
-6.413459777832031250e-05
-3.278255462646484375e-05
-5.400180816650390625e-05
-3.957748413085937500e-05
-2.133846282958984375e-05
-1.013278961181640625e-05
-3.015995025634765625e-05
-1.621246337890625000e-05
4.327297210693359375e-05
3.361701965332031250e-05
2.849102020263671875e-05
3.170967102050781250e-05
1.418590545654296875e-05
-2.634525299072265625e-05
5.137920379638671875e-05
2.026557922363281250e-05
4.243850708007812500e-05
5.447864532470703125e-05
-2.765655517578125000e-05
6.318092346191406250e-06
3.707408905029296875e-05
6.031990051269531250e-05
2.276897430419921875e-05
5.877017974853515625e-05
5.626678466796875000e-05
7.820129394531250000e-05
1.056194305419921875e-04
6.496906280517578125e-05
7.295608520507812500e-05
7.498264312744140625e-05
1.133680343627929688e-04
7.331371307373046875e-05
1.103878021240234375e-04
7.927417755126953125e-05
1.046657562255859375e-04
9.489059448242187500e-05
7.677078247070312500e-05
8.046627044677734375e-05
5.173683166503906250e-05
1.250505447387695312e-04
7.867813110351562500e-05
1.091957092285156250e-04
1.116991043090820312e-04
1.213550567626953125e-04
1.714229583740234375e-04
7.081031799316406250e-05
7.951259613037109375e-05
1.267194747924804688e-04
1.466274261474609375e-04
1.375675201416015625e-04
1.692771911621093750e-04
2.140998840332031250e-04
1.574754714965820312e-04
1.513957977294921875e-04
1.929998397827148438e-04
1.916885375976562500e-04
1.263618469238281250e-04
1.702308654785156250e-04
1.760721206665039062e-04
1.480579376220703125e-04
2.219676971435546875e-04
1.790523529052734375e-04
1.780986785888671875e-04
1.732110977172851562e-04
2.142190933227539062e-04
2.202987670898437500e-04
2.102851867675781250e-04
2.046823501586914062e-04
1.703500747680664062e-04
2.305507659912109375e-04
2.328157424926757812e-04
2.262592315673828125e-04
1.893043518066406250e-04
1.904964447021484375e-04
1.809597015380859375e-04
2.259016036987304688e-04
2.026557922363281250e-04
1.771450042724609375e-04
2.297163009643554688e-04
2.074241638183593750e-04
2.219676971435546875e-04
1.984834671020507812e-04
1.862049102783203125e-04
1.791715621948242188e-04
1.839399337768554688e-04
2.386569976806640625e-04
2.490282058715820312e-04
2.053976058959960938e-04
2.332925796508789062e-04
2.270936965942382812e-04
2.582073211669921875e-04
2.341270446777343750e-04
2.259016036987304688e-04
2.542734146118164062e-04
2.486705780029296875e-04
2.397298812866210938e-04
2.385377883911132812e-04
2.338886260986328125e-04
2.278089523315429688e-04
2.553462982177734375e-04
2.466440200805664062e-04
3.136396408081054688e-04
3.120899200439453125e-04
2.945661544799804688e-04
2.815723419189453125e-04
2.697706222534179688e-04
2.827644348144531250e-04
2.797842025756835938e-04
3.072023391723632812e-04
2.806186676025390625e-04
2.213716506958007812e-04
2.769231796264648438e-04
2.543926239013671875e-04
3.132820129394531250e-04
2.933740615844726562e-04
2.841949462890625000e-04
2.912282943725585938e-04
3.098249435424804688e-04
3.075599670410156250e-04
3.281831741333007812e-04
3.265142440795898438e-04
3.008842468261718750e-04
3.267526626586914062e-04
2.828836441040039062e-04
3.526210784912109375e-04
3.561973571777343750e-04
3.542900085449218750e-04
3.367662429809570312e-04
3.244876861572265625e-04
3.453493118286132812e-04
3.792047500610351562e-04
3.707408905029296875e-04
3.477334976196289062e-04
3.764629364013671875e-04
3.606081008911132812e-04
3.247261047363281250e-04
3.442764282226562500e-04
3.875494003295898438e-04
3.770589828491210938e-04
3.671646118164062500e-04
3.683567047119140625e-04
4.442930221557617188e-04
4.299879074096679688e-04
3.706216812133789062e-04
4.149675369262695312e-04
3.800392150878906250e-04
3.837347030639648438e-04
3.598928451538085938e-04
3.813505172729492188e-04
3.435611724853515625e-04
3.756284713745117188e-04
3.820657730102539062e-04
3.598928451538085938e-04
4.047155380249023438e-04
3.988742828369140625e-04
3.954172134399414062e-04
3.957748413085937500e-04
3.240108489990234375e-04
3.666877746582031250e-04
4.042387008666992188e-04
4.051923751831054688e-04
3.319978713989257812e-04
3.471374511718750000e-04
4.079341888427734375e-04
3.707408905029296875e-04
3.807544708251953125e-04
3.658533096313476562e-04
3.873109817504882812e-04
4.376173019409179688e-04
3.771781921386718750e-04
4.074573516845703125e-04
4.285573959350585938e-04
3.827810287475585938e-04
4.383325576782226562e-04
4.293918609619140625e-04
4.363059997558593750e-04
4.210472106933593750e-04
4.197359085083007812e-04
4.168748855590820312e-04
4.268884658813476562e-04
4.392862319946289062e-04
4.414319992065429688e-04
4.037618637084960938e-04
4.189014434814453125e-04
4.082918167114257812e-04
4.494190216064453125e-04
4.534721374511718750e-04
4.763603210449218750e-04
4.684925079345703125e-04
4.864931106567382812e-04
4.814863204956054688e-04
3.917217254638671875e-04
4.923343658447265625e-04
4.856586456298828125e-04
4.739761352539062500e-04
4.554986953735351562e-04
4.904270172119140625e-04
5.259513854980468750e-04
5.049705505371093750e-04
4.794597625732421875e-04
5.002021789550781250e-04
4.768371582031250000e-04
4.589557647705078125e-04
4.678964614868164062e-04
4.596710205078125000e-04
4.762411117553710938e-04
4.888772964477539062e-04
4.987716674804687500e-04
4.453659057617187500e-04
5.116462707519531250e-04
5.426406860351562500e-04
4.945993423461914062e-04
4.781484603881835938e-04
5.103349685668945312e-04
4.690885543823242188e-04
5.028247833251953125e-04
5.338191986083984375e-04
5.249977111816406250e-04
5.139112472534179688e-04
5.079507827758789062e-04
5.254745483398437500e-04
5.116462707519531250e-04
5.222558975219726562e-04
4.822015762329101562e-04
5.089044570922851562e-04
5.025863647460937500e-04
5.245208740234375000e-04
5.459785461425781250e-04
5.289316177368164062e-04
4.802942276000976562e-04
5.024671554565429688e-04
5.601644515991210938e-04
5.282163619995117188e-04
5.640983581542968750e-04
5.562305450439453125e-04
5.297660827636718750e-04
5.294084548950195312e-04
5.589723587036132812e-04
5.154609680175781250e-04
5.189180374145507812e-04
5.459785461425781250e-04
5.089044570922851562e-04
5.379915237426757812e-04
5.081892013549804688e-04
5.080699920654296875e-04
5.577802658081054688e-04
5.527734756469726562e-04
5.658864974975585938e-04
5.737543106079101562e-04
5.624294281005859375e-04
5.152225494384765625e-04
5.567073822021484375e-04
5.702972412109375000e-04
5.476474761962890625e-04
5.565881729125976562e-04
5.710124969482421875e-04
5.694627761840820312e-04
5.456209182739257812e-04
5.499124526977539062e-04
5.185604095458984375e-04
5.402565002441406250e-04
5.710124969482421875e-04
5.424022674560546875e-04
5.481243133544921875e-04
5.520582199096679688e-04
5.586147308349609375e-04
5.428791046142578125e-04
5.352497100830078125e-04
5.658864974975585938e-04
5.185604095458984375e-04
5.854368209838867188e-04
5.774497985839843750e-04
5.996227264404296875e-04
5.986690521240234375e-04
6.110668182373046875e-04
6.150007247924804688e-04
6.158351898193359375e-04
6.099939346313476562e-04
5.620718002319335938e-04
6.529092788696289062e-04
6.611347198486328125e-04
6.368160247802734375e-04
6.614923477172851562e-04
6.891489028930664062e-04
6.197690963745117188e-04
6.504058837890625000e-04
6.270408630371093750e-04
6.275177001953125000e-04
6.411075592041015625e-04
6.511211395263671875e-04
6.704330444335937500e-04
6.462335586547851562e-04
6.358623504638671875e-04
6.231069564819335938e-04
6.335973739624023438e-04
6.113052368164062500e-04
6.663799285888671875e-04
6.549358367919921875e-04
6.902217864990234375e-04
6.674528121948242188e-04
6.325244903564453125e-04
6.285905838012695312e-04
6.158351898193359375e-04
6.260871887207031250e-04
6.695985794067382812e-04
6.650686264038085938e-04
5.973577499389648438e-04
6.392002105712890625e-04
6.376504898071289062e-04
6.376504898071289062e-04
5.962848663330078125e-04
6.128549575805664062e-04
6.790161132812500000e-04
5.935430526733398438e-04
6.227493286132812500e-04
6.623268127441406250e-04
6.370544433593750000e-04
6.319284439086914062e-04
6.585121154785156250e-04
6.647109985351562500e-04
6.133317947387695312e-04
6.468296051025390625e-04
6.570816040039062500e-04
6.412267684936523438e-04
6.101131439208984375e-04
5.922317504882812500e-04
6.386041641235351562e-04
6.018877029418945312e-04
6.082057952880859375e-04
6.242990493774414062e-04
5.986690521240234375e-04
6.234645843505859375e-04
6.701946258544921875e-04
6.339550018310546875e-04
6.438493728637695312e-04
6.372928619384765625e-04
6.620883941650390625e-04
6.738901138305664062e-04
6.353855133056640625e-04
6.653070449829101562e-04
6.922483444213867188e-04
6.732940673828125000e-04
6.781816482543945312e-04
6.557703018188476562e-04
6.458759307861328125e-04
6.402730941772460938e-04
6.552934646606445312e-04
6.582736968994140625e-04
6.569623947143554688e-04
6.724596023559570312e-04
6.561279296875000000e-04
6.698369979858398438e-04
6.300210952758789062e-04
7.182359695434570312e-04
6.805658340454101562e-04
6.420612335205078125e-04
6.623268127441406250e-04
6.387233734130859375e-04
6.539821624755859375e-04
6.396770477294921875e-04
6.657838821411132812e-04
6.253719329833984375e-04
6.536245346069335938e-04
6.874799728393554688e-04
6.941556930541992188e-04
6.612539291381835938e-04
6.462335586547851562e-04
7.202625274658203125e-04
6.778240203857421875e-04
6.715059280395507812e-04
7.054805755615234375e-04
6.698369979858398438e-04
7.029771804809570312e-04
7.027387619018554688e-04
7.214546203613281250e-04
7.327795028686523438e-04
7.015466690063476562e-04
7.165670394897460938e-04
7.148981094360351562e-04
7.237195968627929688e-04
6.890296936035156250e-04
6.421804428100585938e-04
7.250308990478515625e-04
7.288455963134765625e-04
6.904602050781250000e-04
7.290840148925781250e-04
7.344484329223632812e-04
7.547140121459960938e-04
6.868839263916015625e-04
7.425546646118164062e-04
7.469654083251953125e-04
7.528066635131835938e-04
7.275342941284179688e-04
7.045269012451171875e-04
7.214546203613281250e-04
6.606578826904296875e-04
6.587505340576171875e-04
6.980895996093750000e-04
7.433891296386718750e-04
7.222890853881835938e-04
7.293224334716796875e-04
7.328987121582031250e-04
7.139444351196289062e-04
7.201433181762695312e-04
6.592273712158203125e-04
6.803274154663085938e-04
7.389783859252929688e-04
7.005929946899414062e-04
6.911754608154296875e-04
7.371902465820312500e-04
7.104873657226562500e-04
7.143020629882812500e-04
7.673501968383789062e-04
7.582902908325195312e-04
7.250308990478515625e-04
7.289648056030273438e-04
7.897615432739257812e-04
7.737874984741210938e-04
7.452964782714843750e-04
7.410049438476562500e-04
7.524490356445312500e-04
7.804632186889648438e-04
7.055997848510742188e-04
6.914138793945312500e-04
7.131099700927734375e-04
7.156133651733398438e-04
7.392168045043945312e-04
7.210969924926757812e-04
7.295608520507812500e-04
7.156133651733398438e-04
7.526874542236328125e-04
7.535219192504882812e-04
7.327795028686523438e-04
7.004737854003906250e-04
7.455348968505859375e-04
7.609128952026367188e-04
7.685422897338867188e-04
6.966590881347656250e-04
7.270574569702148438e-04
8.174180984497070312e-04
7.818937301635742188e-04
7.206201553344726562e-04
6.773471832275390625e-04
7.787942886352539062e-04
8.063316345214843750e-04
7.787942886352539062e-04
7.253885269165039062e-04
7.677078247070312500e-04
8.488893508911132812e-04
8.219480514526367188e-04
7.618665695190429688e-04
7.138252258300781250e-04
7.828474044799804688e-04
8.214712142944335938e-04
7.964372634887695312e-04
7.599592208862304688e-04
7.050037384033203125e-04
7.740259170532226562e-04
8.116960525512695312e-04
8.076429367065429688e-04
7.605552673339843750e-04
7.630586624145507812e-04
8.168220520019531250e-04
7.923841476440429688e-04
7.157325744628906250e-04
7.066726684570312500e-04
8.026361465454101562e-04
8.064508438110351562e-04
8.236169815063476562e-04
7.361173629760742188e-04
7.596015930175781250e-04
7.961988449096679688e-04
8.432865142822265625e-04
7.865428924560546875e-04
6.849765777587890625e-04
8.169412612915039062e-04
8.516311645507812500e-04
8.007287979125976562e-04
7.287263870239257812e-04
6.659030914306640625e-04
7.690191268920898438e-04
8.424520492553710938e-04
8.375644683837890625e-04
7.420778274536132812e-04
7.432699203491210938e-04
8.320808410644531250e-04
8.126497268676757812e-04
7.176399230957031250e-04
6.211996078491210938e-04
6.893873214721679688e-04
8.462667465209960938e-04
8.522272109985351562e-04
7.494688034057617188e-04
7.351636886596679688e-04
7.256269454956054688e-04
8.172988891601562500e-04
7.513761520385742188e-04
6.628036499023437500e-04
7.221698760986328125e-04
8.432865142822265625e-04
8.989572525024414062e-04
7.412433624267578125e-04
6.984472274780273438e-04
7.357597351074218750e-04
8.778572082519531250e-04
8.120536804199218750e-04
7.228851318359375000e-04
7.822513580322265625e-04
8.471012115478515625e-04
9.132623672485351562e-04
8.215904235839843750e-04
7.278919219970703125e-04
7.592439651489257812e-04
9.690523147583007812e-04
7.609128952026367188e-04
4.729032516479492188e-04
4.144906997680664062e-04
6.593465805053710938e-04
9.546279907226562500e-04
6.777048110961914062e-04
5.692243576049804688e-04
5.918741226196289062e-04
9.657144546508789062e-04
3.896951675415039062e-04
-1.922845840454101562e-04
-2.914667129516601562e-04
2.995729446411132812e-04
1.027107238769531250e-03
9.027719497680664062e-04
8.659362792968750000e-04
8.205175399780273438e-04
9.025335311889648438e-04
8.579492568969726562e-04
7.200241088867187500e-04
5.950927734375000000e-04
8.046627044677734375e-04
9.944438934326171875e-04
9.673833847045898438e-04
7.374286651611328125e-04
7.944107055664062500e-04
8.667707443237304688e-04
9.031295776367187500e-04
8.221864700317382812e-04
7.737874984741210938e-04
8.292198181152343750e-04
9.123086929321289062e-04
8.474588394165039062e-04
7.193088531494140625e-04
8.107423782348632812e-04
9.618997573852539062e-04
1.001715660095214844e-03
8.734464645385742188e-04
7.494688034057617188e-04
6.984472274780273438e-04
7.854700088500976562e-04
8.722543716430664062e-04
8.599758148193359375e-04
8.864402770996093750e-04
1.018762588500976562e-03
1.000881195068359375e-03
8.373260498046875000e-04
7.021427154541015625e-04
6.592273712158203125e-04
8.157491683959960938e-04
9.207725524902343750e-04
9.026527404785156250e-04
8.955001831054687500e-04
9.884834289550781250e-04
9.913444519042968750e-04
8.685588836669921875e-04
7.294416427612304688e-04
7.164478302001953125e-04
8.335113525390625000e-04
9.441375732421875000e-04
8.932352066040039062e-04
8.410215377807617188e-04
8.417367935180664062e-04
9.196996688842773438e-04
9.632110595703125000e-04
8.574724197387695312e-04
8.215904235839843750e-04
8.302927017211914062e-04
8.695125579833984375e-04
7.666349411010742188e-04
7.650852203369140625e-04
8.600950241088867188e-04
9.729862213134765625e-04
1.029133796691894531e-03
1.001238822937011719e-03
7.985830307006835938e-04
7.768869400024414062e-04
8.280277252197265625e-04
7.681846618652343750e-04
7.894039154052734375e-04
8.814334869384765625e-04
9.762048721313476562e-04
9.518861770629882812e-04
8.424520492553710938e-04
7.371902465820312500e-04
6.922483444213867188e-04
7.511377334594726562e-04
8.232593536376953125e-04
9.084939956665039062e-04
8.817911148071289062e-04
8.693933486938476562e-04
8.946657180786132812e-04
8.927583694458007812e-04
8.505582809448242188e-04
8.078813552856445312e-04
8.558034896850585938e-04
8.795261383056640625e-04
9.037256240844726562e-04
8.714199066162109375e-04
8.618831634521484375e-04
9.001493453979492188e-04
9.802579879760742188e-04
9.026527404785156250e-04
8.944272994995117188e-04
8.709430694580078125e-04
8.484125137329101562e-04
8.287429809570312500e-04
7.858276367187500000e-04
8.525848388671875000e-04
9.649991989135742188e-04
9.614229202270507812e-04
9.539127349853515625e-04
8.966922760009765625e-04
8.893013000488281250e-04
9.053945541381835938e-04
8.478164672851562500e-04
9.011030197143554688e-04
8.863210678100585938e-04
9.232759475708007812e-04
8.978843688964843750e-04
8.773803710937500000e-04
8.821487426757812500e-04
8.959770202636718750e-04
9.479522705078125000e-04
9.313821792602539062e-04
8.355379104614257812e-04
8.751153945922851562e-04
9.137392044067382812e-04
8.968114852905273438e-04
8.682012557983398438e-04
8.684396743774414062e-04
9.192228317260742188e-04
8.813142776489257812e-04
8.459091186523437500e-04
8.795261383056640625e-04
8.322000503540039062e-04
8.970499038696289062e-04
8.820295333862304688e-04
8.810758590698242188e-04
9.100437164306640625e-04
9.118318557739257812e-04
8.926391601562500000e-04
8.420944213867187500e-04
8.622407913208007812e-04
8.449554443359375000e-04
9.355545043945312500e-04
9.043216705322265625e-04
9.088516235351562500e-04
9.306669235229492188e-04
8.627176284790039062e-04
9.046792984008789062e-04
8.447170257568359375e-04
8.445978164672851562e-04
9.273290634155273438e-04
9.233951568603515625e-04
8.829832077026367188e-04
9.111166000366210938e-04
9.111166000366210938e-04
9.278059005737304688e-04
9.384155273437500000e-04
9.037256240844726562e-04
8.833408355712890625e-04
8.816719055175781250e-04
8.850097656250000000e-04
8.810758590698242188e-04
8.503198623657226562e-04
8.553266525268554688e-04
9.039640426635742188e-04
8.835792541503906250e-04
9.026527404785156250e-04
8.782148361206054688e-04
8.786916732788085938e-04
8.724927902221679688e-04
8.890628814697265625e-04
9.018182754516601562e-04
8.789300918579101562e-04
9.286403656005859375e-04
9.392499923706054688e-04
8.950233459472656250e-04
8.801221847534179688e-04
8.714199066162109375e-04
8.332729339599609375e-04
8.648633956909179688e-04
8.710622787475585938e-04
8.726119995117187500e-04
8.544921875000000000e-04
9.248256683349609375e-04
8.718967437744140625e-04
8.257627487182617188e-04
8.717775344848632812e-04
9.207725524902343750e-04
8.479356765747070312e-04
8.982419967651367188e-04
8.777379989624023438e-04
8.344650268554687500e-04
8.956193923950195312e-04
8.983612060546875000e-04
9.262561798095703125e-04
8.814334869384765625e-04
9.114742279052734375e-04
9.279251098632812500e-04
9.438991546630859375e-04
9.012222290039062500e-04
9.268522262573242188e-04
9.084939956665039062e-04
9.149312973022460938e-04
9.214878082275390625e-04
8.572340011596679688e-04
8.763074874877929688e-04
8.633136749267578125e-04
8.956193923950195312e-04
9.193420410156250000e-04
8.769035339355468750e-04
8.828639984130859375e-04
8.997917175292968750e-04
8.885860443115234375e-04
9.142160415649414062e-04
8.950233459472656250e-04
8.816719055175781250e-04
9.111166000366210938e-04
8.734464645385742188e-04
8.964538574218750000e-04
8.295774459838867188e-04
8.963346481323242188e-04
9.187459945678710938e-04
8.616447448730468750e-04
8.655786514282226562e-04
8.887052536010742188e-04
8.925199508666992188e-04
8.821487426757812500e-04
8.883476257324218750e-04
9.230375289916992188e-04
1.046061515808105469e-03
1.023173332214355469e-03
1.058459281921386719e-03
1.026391983032226562e-03
9.927749633789062500e-04
1.037716865539550781e-03
9.672641754150390625e-04
1.034021377563476562e-03
9.796619415283203125e-04
9.669065475463867188e-04
1.003026962280273438e-03
1.032233238220214844e-03
1.027107238769531250e-03
9.678602218627929688e-04
9.710788726806640625e-04
9.878873825073242188e-04
1.013040542602539062e-03
9.598731994628906250e-04
9.762048721313476562e-04
9.540319442749023438e-04
9.697675704956054688e-04
9.953975677490234375e-04
9.745359420776367188e-04
9.877681732177734375e-04
9.553432464599609375e-04
1.013040542602539062e-03
9.874105453491210938e-04
1.036763191223144531e-03
1.023650169372558594e-03
1.043677330017089844e-03
1.017808914184570312e-03
9.720325469970703125e-04
9.140968322753906250e-04
9.342432022094726562e-04
9.948015213012695312e-04
9.391307830810546875e-04
9.936094284057617188e-04
9.906291961669921875e-04
1.019954681396484375e-03
9.533166885375976562e-04
9.829998016357421875e-04
9.909868240356445312e-04
9.728670120239257812e-04
1.010775566101074219e-03
1.019239425659179688e-03
1.043558120727539062e-03
1.013159751892089844e-03
9.590387344360351562e-04
9.875297546386718750e-04
9.862184524536132812e-04
9.905099868774414062e-04
9.788274765014648438e-04
9.499788284301757812e-04
9.788274765014648438e-04
1.003742218017578125e-03
9.994506835937500000e-04
9.852647781372070312e-04
9.765625000000000000e-04
9.944438934326171875e-04
9.517669677734375000e-04
9.781122207641601562e-04
1.002550125122070312e-03
9.742975234985351562e-04
9.955167770385742188e-04
1.021981239318847656e-03
9.970664978027343750e-04
9.908676147460937500e-04
9.849071502685546875e-04
9.692907333374023438e-04
1.006126403808593750e-03
1.031875610351562500e-03
1.029253005981445312e-03
1.044392585754394531e-03
9.751319885253906250e-04
9.887218475341796875e-04
9.710788726806640625e-04
9.819269180297851562e-04
9.840726852416992188e-04
1.025676727294921875e-03
9.989738464355468750e-04
9.261369705200195312e-04
9.572505950927734375e-04
9.859800338745117188e-04
1.006484031677246094e-03
9.554624557495117188e-04
1.019835472106933594e-03
9.957551956176757812e-04
1.022696495056152344e-03
1.025319099426269531e-03
1.008749008178710938e-03
1.012444496154785156e-03
1.024127006530761719e-03
1.102209091186523438e-03
1.015543937683105469e-03
1.040935516357421875e-03
1.013159751892089844e-03
1.012563705444335938e-03
1.043915748596191406e-03
1.052498817443847656e-03
1.082062721252441406e-03
1.071095466613769531e-03
1.062512397766113281e-03
1.011848449707031250e-03
9.992122650146484375e-04
1.002907752990722656e-03
1.020193099975585938e-03
1.013517379760742188e-03
9.584426879882812500e-04
9.953975677490234375e-04
9.616613388061523438e-04
7.876157760620117188e-04
8.159875869750976562e-04
8.287429809570312500e-04
8.528232574462890625e-04
8.916854858398437500e-04
8.337497711181640625e-04
8.370876312255859375e-04
8.512735366821289062e-04
8.571147918701171875e-04
8.648633956909179688e-04
8.728504180908203125e-04
8.302927017211914062e-04
8.448362350463867188e-04
8.536577224731445312e-04
8.537769317626953125e-04
8.665323257446289062e-04
8.480548858642578125e-04
8.639097213745117188e-04
8.267164230346679688e-04
8.388757705688476562e-04
8.790493011474609375e-04
8.056163787841796875e-04
8.244514465332031250e-04
8.640289306640625000e-04
8.420944213867187500e-04
8.738040924072265625e-04
8.645057678222656250e-04
8.374452590942382812e-04
8.410215377807617188e-04
8.397102355957031250e-04
8.770227432250976562e-04
8.482933044433593750e-04
8.569955825805664062e-04
8.034706115722656250e-04
8.108615875244140625e-04
8.834600448608398438e-04
8.363723754882812500e-04
8.368492126464843750e-04
8.367300033569335938e-04
8.273124694824218750e-04
8.246898651123046875e-04
8.260011672973632812e-04
8.432865142822265625e-04
8.381605148315429688e-04
8.012056350708007812e-04
8.591413497924804688e-04
8.976459503173828125e-04
8.201599121093750000e-04
7.979869842529296875e-04
8.552074432373046875e-04
8.344650268554687500e-04
8.546113967895507812e-04
8.661746978759765625e-04
8.285045623779296875e-04
8.251667022705078125e-04
8.589029312133789062e-04
8.560419082641601562e-04
8.128881454467773438e-04
8.127689361572265625e-04
8.479356765747070312e-04
8.378028869628906250e-04
8.950233459472656250e-04
8.466243743896484375e-04
8.194446563720703125e-04
8.554458618164062500e-04
8.605718612670898438e-04
8.620023727416992188e-04
8.939504623413085938e-04
8.674860000610351562e-04
8.479356765747070312e-04
8.984804153442382812e-04
8.342266082763671875e-04
8.643865585327148438e-04
8.785724639892578125e-04
8.411407470703125000e-04
8.292198181152343750e-04
8.386373519897460938e-04
8.636713027954101562e-04
8.565187454223632812e-04
8.766651153564453125e-04
8.771419525146484375e-04
8.789300918579101562e-04
8.554458618164062500e-04
8.479356765747070312e-04
8.815526962280273438e-04
8.506774902343750000e-04
8.486509323120117188e-04
8.664131164550781250e-04
9.028911590576171875e-04
8.504390716552734375e-04
8.282661437988281250e-04
8.286237716674804688e-04
8.484125137329101562e-04
8.847713470458984375e-04
8.569955825805664062e-04
8.560419082641601562e-04
8.434057235717773438e-04
8.165836334228515625e-04
8.511543273925781250e-04
8.267164230346679688e-04
8.276700973510742188e-04
8.352994918823242188e-04
8.391141891479492188e-04
8.417367935180664062e-04
8.569955825805664062e-04
8.784532546997070312e-04
8.649826049804687500e-04
8.412599563598632812e-04
8.584260940551757812e-04
8.767843246459960938e-04
8.732080459594726562e-04
8.857250213623046875e-04
8.535385131835937500e-04
8.293390274047851562e-04
8.027553558349609375e-04
8.696317672729492188e-04
8.884668350219726562e-04
8.523464202880859375e-04
8.393526077270507812e-04
8.298158645629882812e-04
8.516311645507812500e-04
8.689165115356445312e-04
8.491277694702148438e-04
8.460283279418945312e-04
8.561611175537109375e-04
8.400678634643554688e-04
8.683204650878906250e-04
8.312463760375976562e-04
8.380413055419921875e-04
8.583068847656250000e-04
8.380413055419921875e-04
8.472204208374023438e-04
8.304119110107421875e-04
8.682012557983398438e-04
8.502006530761718750e-04
8.431673049926757812e-04
8.959770202636718750e-04
8.443593978881835938e-04
8.424520492553710938e-04
8.718967437744140625e-04
8.645057678222656250e-04
8.872747421264648438e-04
9.024143218994140625e-04
8.469820022583007812e-04
8.018016815185546875e-04
8.368492126464843750e-04
8.710622787475585938e-04
8.442401885986328125e-04
8.575916290283203125e-04
8.548498153686523438e-04
8.981227874755859375e-04
8.752346038818359375e-04
8.747577667236328125e-04
8.378028869628906250e-04
8.488893508911132812e-04
8.698701858520507812e-04
8.851289749145507812e-04
8.435249328613281250e-04
8.544921875000000000e-04
8.702278137207031250e-04
8.568763732910156250e-04
8.867979049682617188e-04
8.623600006103515625e-04
9.144544601440429688e-04
9.051561355590820312e-04
8.617639541625976562e-04
8.503198623657226562e-04
8.677244186401367188e-04
8.727312088012695312e-04
8.883476257324218750e-04
8.741617202758789062e-04
8.845329284667968750e-04
8.866786956787109375e-04
8.822679519653320312e-04
9.002685546875000000e-04
8.878707885742187500e-04
8.522272109985351562e-04
8.351802825927734375e-04
8.679628372192382812e-04
8.614063262939453125e-04
8.715391159057617188e-04
8.931159973144531250e-04
9.012222290039062500e-04
8.624792098999023438e-04
8.561611175537109375e-04
8.766651153564453125e-04
8.920431137084960938e-04
8.857250213623046875e-04
9.030103683471679688e-04
8.785724639892578125e-04
8.946657180786132812e-04
9.109973907470703125e-04
9.024143218994140625e-04
8.740425109863281250e-04
8.682012557983398438e-04
8.707046508789062500e-04
8.922815322875976562e-04
9.100437164306640625e-04
8.780956268310546875e-04
8.938312530517578125e-04
8.751153945922851562e-04
9.044408798217773438e-04
8.804798126220703125e-04
8.878707885742187500e-04
8.915662765502929688e-04
8.150339126586914062e-04
8.838176727294921875e-04
8.581876754760742188e-04
8.752346038818359375e-04
8.586645126342773438e-04
8.583068847656250000e-04
8.809566497802734375e-04
8.436441421508789062e-04
8.311271667480468750e-04
8.374452590942382812e-04
8.252859115600585938e-04
8.335113525390625000e-04
9.000301361083984375e-04
8.536577224731445312e-04
8.373260498046875000e-04
8.435249328613281250e-04
8.639097213745117188e-04
8.478164672851562500e-04
8.326768875122070312e-04
8.349418640136718750e-04
9.311437606811523438e-04
8.879899978637695312e-04
8.642673492431640625e-04
8.856058120727539062e-04
8.393526077270507812e-04
8.828639984130859375e-04
8.276700973510742188e-04
8.789300918579101562e-04
8.566379547119140625e-04
8.574724197387695312e-04
8.658170700073242188e-04
8.113384246826171875e-04
8.333921432495117188e-04
8.534193038940429688e-04
8.518695831298828125e-04
7.904767990112304688e-04
7.936954498291015625e-04
8.492469787597656250e-04
8.355379104614257812e-04
8.920431137084960938e-04
9.107589721679687500e-04
8.450746536254882812e-04
8.727312088012695312e-04
8.552074432373046875e-04
8.715391159057617188e-04
8.918046951293945312e-04
8.981227874755859375e-04
8.604526519775390625e-04
8.236169815063476562e-04
8.801221847534179688e-04
8.907318115234375000e-04
9.107589721679687500e-04
8.561611175537109375e-04
8.579492568969726562e-04
8.312463760375976562e-04
8.345842361450195312e-04
9.061098098754882812e-04
8.718967437744140625e-04
8.448362350463867188e-04
8.422136306762695312e-04
8.453130722045898438e-04
8.713006973266601562e-04
8.860826492309570312e-04
8.648633956909179688e-04
8.447170257568359375e-04
8.242130279541015625e-04
8.232593536376953125e-04
8.811950683593750000e-04
8.894205093383789062e-04
8.360147476196289062e-04
8.312463760375976562e-04
8.276700973510742188e-04
8.801221847534179688e-04
8.672475814819335938e-04
8.713006973266601562e-04
8.864402770996093750e-04
9.037256240844726562e-04
8.441209793090820312e-04
8.810758590698242188e-04
8.785724639892578125e-04
8.233785629272460938e-04
8.832216262817382812e-04
8.561611175537109375e-04
8.615255355834960938e-04
8.631944656372070312e-04
8.450746536254882812e-04
8.594989776611328125e-04
8.703470230102539062e-04
8.690357208251953125e-04
8.881092071533203125e-04
8.760690689086914062e-04
8.429288864135742188e-04
8.728504180908203125e-04
9.135007858276367188e-04
8.487701416015625000e-04
8.623600006103515625e-04
8.472204208374023438e-04
8.668899536132812500e-04
8.320808410644531250e-04
8.342266082763671875e-04
8.252859115600585938e-04
8.289813995361328125e-04
8.854866027832031250e-04
7.990598678588867188e-04
8.239746093750000000e-04
8.436441421508789062e-04
8.672475814819335938e-04
8.538961410522460938e-04
8.164644241333007812e-04
8.273124694824218750e-04
8.416175842285156250e-04
8.647441864013671875e-04
8.724927902221679688e-04
8.660554885864257812e-04
8.461475372314453125e-04
8.449554443359375000e-04
8.561611175537109375e-04
8.633136749267578125e-04
8.628368377685546875e-04
8.473396301269531250e-04
8.387565612792968750e-04
8.505582809448242188e-04
8.608102798461914062e-04
8.381605148315429688e-04
8.374452590942382812e-04
8.360147476196289062e-04
7.988214492797851562e-04
8.431673049926757812e-04
8.492469787597656250e-04
8.428096771240234375e-04
8.248090744018554688e-04
8.282661437988281250e-04
8.568763732910156250e-04
8.115768432617187500e-04
8.171796798706054688e-04
8.143186569213867188e-04
8.494853973388671875e-04
8.343458175659179688e-04
8.686780929565429688e-04
8.540153503417968750e-04
8.201599121093750000e-04
8.506774902343750000e-04
8.331537246704101562e-04
8.194446563720703125e-04
8.255243301391601562e-04
8.485317230224609375e-04
7.886886596679687500e-04
8.170604705810546875e-04
8.389949798583984375e-04
8.356571197509765625e-04
7.928609848022460938e-04
8.049011230468750000e-04
8.227825164794921875e-04
8.319616317749023438e-04
8.492469787597656250e-04
8.529424667358398438e-04
8.385181427001953125e-04
8.137226104736328125e-04
8.586645126342773438e-04
8.548498153686523438e-04
8.043050765991210938e-04
7.936954498291015625e-04
8.304119110107421875e-04
8.339881896972656250e-04
8.219480514526367188e-04
7.816553115844726562e-04
7.678270339965820312e-04
8.069276809692382812e-04
8.115768432617187500e-04
8.331537246704101562e-04
8.401870727539062500e-04
7.619857788085937500e-04
8.339881896972656250e-04
7.988214492797851562e-04
7.830858230590820312e-04
7.841587066650390625e-04
8.218288421630859375e-04
8.220672607421875000e-04
8.403062820434570312e-04
8.708238601684570312e-04
7.903575897216796875e-04
8.095502853393554688e-04
7.641315460205078125e-04
7.919073104858398438e-04
7.960796356201171875e-04
8.447170257568359375e-04
8.465051651000976562e-04
7.833242416381835938e-04
7.768869400024414062e-04
8.332729339599609375e-04
8.213520050048828125e-04
8.628368377685546875e-04
8.673667907714843750e-04
7.660388946533203125e-04
7.959604263305664062e-04
8.051395416259765625e-04
7.793903350830078125e-04
8.133649826049804688e-04
8.149147033691406250e-04
7.768869400024414062e-04
8.023977279663085938e-04
8.139610290527343750e-04
8.709430694580078125e-04
8.782148361206054688e-04
8.341073989868164062e-04
8.118152618408203125e-04
8.300542831420898438e-04
8.190870285034179688e-04
8.156299591064453125e-04
8.167028427124023438e-04
8.426904678344726562e-04
8.201599121093750000e-04
8.306503295898437500e-04
8.127689361572265625e-04
8.097887039184570312e-04
8.193254470825195312e-04
8.111000061035156250e-04
8.862018585205078125e-04
7.849931716918945312e-04
8.085966110229492188e-04
8.031129837036132812e-04
7.976293563842773438e-04
8.152723312377929688e-04
7.836818695068359375e-04
7.740259170532226562e-04
7.752180099487304688e-04
7.963180541992187500e-04
7.778406143188476562e-04
7.627010345458984375e-04
7.923841476440429688e-04
8.254051208496093750e-04
7.593631744384765625e-04
7.846355438232421875e-04
7.852315902709960938e-04
8.103847503662109375e-04
8.168220520019531250e-04
7.601976394653320312e-04
7.716417312622070312e-04
7.507801055908203125e-04
7.508993148803710938e-04
7.514953613281250000e-04
7.843971252441406250e-04
7.853507995605468750e-04
7.733106613159179688e-04
7.598400115966796875e-04
7.584095001220703125e-04
7.853507995605468750e-04
8.021593093872070312e-04
7.597208023071289062e-04
7.860660552978515625e-04
8.265972137451171875e-04
8.183717727661132812e-04
7.663965225219726562e-04
7.379055023193359375e-04
7.828474044799804688e-04
7.714033126831054688e-04
7.860660552978515625e-04
7.768869400024414062e-04
7.697343826293945312e-04
7.641315460205078125e-04
7.716417312622070312e-04
7.895231246948242188e-04
7.743835449218750000e-04
7.388591766357421875e-04
7.663965225219726562e-04
7.997751235961914062e-04
7.690191268920898438e-04
7.367134094238281250e-04
8.068084716796875000e-04
7.531642913818359375e-04
7.437467575073242188e-04
7.696151733398437500e-04
7.842779159545898438e-04
7.714033126831054688e-04
7.448196411132812500e-04
7.308721542358398438e-04
7.814168930053710938e-04
8.519887924194335938e-04
7.792711257934570312e-04
7.387399673461914062e-04
7.387399673461914062e-04
7.807016372680664062e-04
7.426738739013671875e-04
7.479190826416015625e-04
7.919073104858398438e-04
8.169412612915039062e-04
7.709264755249023438e-04
7.727146148681640625e-04
7.472038269042968750e-04
7.876157760620117188e-04
8.025169372558593750e-04
7.375478744506835938e-04
7.009506225585937500e-04
7.104873657226562500e-04
7.795095443725585938e-04
8.416175842285156250e-04
7.812976837158203125e-04
6.927251815795898438e-04
7.265806198120117188e-04
7.228851318359375000e-04
7.183551788330078125e-04
6.943941116333007812e-04
6.957054138183593750e-04
7.890462875366210938e-04
8.267164230346679688e-04
7.318258285522460938e-04
6.982088088989257812e-04
7.348060607910156250e-04
7.958412170410156250e-04
7.737874984741210938e-04
6.628036499023437500e-04
6.674528121948242188e-04
7.774829864501953125e-04
8.598566055297851562e-04
7.441043853759765625e-04
6.682872772216796875e-04
6.450414657592773438e-04
7.718801498413085938e-04
6.260871887207031250e-04
4.038810729980468750e-04
5.040168762207031250e-04
6.457567214965820312e-04
8.409023284912109375e-04
4.550218582153320312e-04
4.310607910156250000e-04
4.745721817016601562e-04
9.094476699829101562e-04
3.864765167236328125e-04
-2.193450927734375000e-04
-2.905130386352539062e-04
1.678466796875000000e-04
9.180307388305664062e-04
6.844997406005859375e-04
7.954835891723632812e-04
8.080005645751953125e-04
7.876157760620117188e-04
7.350444793701171875e-04
6.450414657592773438e-04
6.604194641113281250e-04
8.000135421752929688e-04
8.364915847778320312e-04
7.268190383911132812e-04
6.556510925292968750e-04
7.110834121704101562e-04
8.317232131958007812e-04
8.121728897094726562e-04
6.632804870605468750e-04
6.222724914550781250e-04
6.787776947021484375e-04
8.519887924194335938e-04
7.861852645874023438e-04
6.767511367797851562e-04
7.499456405639648438e-04
8.374452590942382812e-04
8.291006088256835938e-04
6.742477416992187500e-04
6.794929504394531250e-04
7.816553115844726562e-04
8.316040039062500000e-04
6.983280181884765625e-04
6.017684936523437500e-04
7.311105728149414062e-04
7.870197296142578125e-04
8.306503295898437500e-04
6.886720657348632812e-04
5.810260772705078125e-04
7.209777832031250000e-04
7.506608963012695312e-04
7.417201995849609375e-04
6.414651870727539062e-04
7.464885711669921875e-04
8.215904235839843750e-04
7.820129394531250000e-04
7.307529449462890625e-04
6.504058837890625000e-04
7.648468017578125000e-04
8.232593536376953125e-04
7.146596908569335938e-04
6.366968154907226562e-04
6.889104843139648438e-04
8.332729339599609375e-04
8.405447006225585938e-04
6.973743438720703125e-04
6.253719329833984375e-04
7.566213607788085938e-04
7.337331771850585938e-04
7.224082946777343750e-04
7.041692733764648438e-04
7.135868072509765625e-04
8.047819137573242188e-04
8.096694946289062500e-04
7.474422454833984375e-04
7.342100143432617188e-04
7.590055465698242188e-04
7.324218750000000000e-04
6.953477859497070312e-04
6.610155105590820312e-04
6.916522979736328125e-04
7.740259170532226562e-04
7.888078689575195312e-04
7.100105285644531250e-04
7.001161575317382812e-04
6.922483444213867188e-04
7.226467132568359375e-04
7.015466690063476562e-04
6.681680679321289062e-04
7.259845733642578125e-04
7.463693618774414062e-04
7.098913192749023438e-04
6.948709487915039062e-04
6.830692291259765625e-04
7.473230361938476562e-04
7.463693618774414062e-04
6.816387176513671875e-04
6.728172302246093750e-04
7.010698318481445312e-04
7.580518722534179688e-04
7.355213165283203125e-04
6.753206253051757812e-04
6.810426712036132812e-04
6.819963455200195312e-04
7.196664810180664062e-04
7.281303405761718750e-04
6.622076034545898438e-04
7.262229919433593750e-04
7.255077362060546875e-04
7.355213165283203125e-04
7.117986679077148438e-04
6.546974182128906250e-04
7.140636444091796875e-04
6.971359252929687500e-04
7.089376449584960938e-04
6.779432296752929688e-04
7.302761077880859375e-04
7.214546203613281250e-04
6.679296493530273438e-04
7.007122039794921875e-04
7.164478302001953125e-04
7.318258285522460938e-04
7.692575454711914062e-04
6.990432739257812500e-04
6.896257400512695312e-04
7.249116897583007812e-04
7.282495498657226562e-04
7.495880126953125000e-04
6.588697433471679688e-04
6.561279296875000000e-04
7.470846176147460938e-04
7.560253143310546875e-04
7.107257843017578125e-04
7.122755050659179688e-04
7.226467132568359375e-04
7.025003433227539062e-04
7.013082504272460938e-04
6.897449493408203125e-04
6.407499313354492188e-04
6.772279739379882812e-04
7.038116455078125000e-04
6.897449493408203125e-04
7.057189941406250000e-04
6.923675537109375000e-04
7.448196411132812500e-04
7.798671722412109375e-04
6.893873214721679688e-04
6.630420684814453125e-04
7.008314132690429688e-04
7.117986679077148438e-04
7.073879241943359375e-04
6.790161132812500000e-04
6.525516510009765625e-04
7.389783859252929688e-04
7.127523422241210938e-04
7.005929946899414062e-04
7.005929946899414062e-04
7.276535034179687500e-04
7.073879241943359375e-04
6.768703460693359375e-04
6.551742553710937500e-04
6.693601608276367188e-04
7.297992706298828125e-04
7.029771804809570312e-04
6.916522979736328125e-04
6.518363952636718750e-04
6.719827651977539062e-04
7.123947143554687500e-04
7.424354553222656250e-04
6.906986236572265625e-04
6.818771362304687500e-04
7.328987121582031250e-04
7.011890411376953125e-04
7.017850875854492188e-04
6.899833679199218750e-04
7.077455520629882812e-04
7.275342941284179688e-04
7.036924362182617188e-04
6.937980651855468750e-04
6.680488586425781250e-04
7.183551788330078125e-04
7.332563400268554688e-04
6.715059280395507812e-04
6.763935089111328125e-04
6.785392761230468750e-04
7.359981536865234375e-04
7.129907608032226562e-04
6.345510482788085938e-04
6.643533706665039062e-04
7.220506668090820312e-04
6.983280181884765625e-04
6.562471389770507812e-04
6.436109542846679688e-04
6.537437438964843750e-04
7.027387619018554688e-04
6.729364395141601562e-04
6.493330001831054688e-04
6.756782531738281250e-04
7.202625274658203125e-04
7.398128509521484375e-04
6.515979766845703125e-04
6.949901580810546875e-04
6.638765335083007812e-04
6.698369979858398438e-04
6.972551345825195312e-04
6.368160247802734375e-04
6.610155105590820312e-04
6.892681121826171875e-04
7.227659225463867188e-04
6.926059722900390625e-04
6.685256958007812500e-04
6.657838821411132812e-04
6.738901138305664062e-04
6.532669067382812500e-04
6.430149078369140625e-04
6.833076477050781250e-04
6.957054138183593750e-04
6.489753723144531250e-04
6.365776062011718750e-04
6.492137908935546875e-04
6.482601165771484375e-04
6.849765777587890625e-04
6.710290908813476562e-04
6.381273269653320312e-04
6.606578826904296875e-04
6.371736526489257812e-04
6.388425827026367188e-04
6.304979324340820312e-04
7.120370864868164062e-04
7.096529006958007812e-04
7.125139236450195312e-04
7.170438766479492188e-04
7.346868515014648438e-04
7.392168045043945312e-04
7.004737854003906250e-04
7.115602493286132812e-04
6.361007690429687500e-04
6.415843963623046875e-04
6.830692291259765625e-04
6.246566772460937500e-04
6.154775619506835938e-04
6.365776062011718750e-04
6.438493728637695312e-04
6.977319717407226562e-04
7.081031799316406250e-04
6.314516067504882812e-04
6.735324859619140625e-04
7.023811340332031250e-04
6.973743438720703125e-04
6.886720657348632812e-04
6.384849548339843750e-04
6.908178329467773438e-04
7.220506668090820312e-04
6.833076477050781250e-04
6.519556045532226562e-04
6.428956985473632812e-04
6.227493286132812500e-04
6.586313247680664062e-04
6.264448165893554688e-04
6.177425384521484375e-04
6.289482116699218750e-04
6.438493728637695312e-04
6.946325302124023438e-04
6.767511367797851562e-04
6.418228149414062500e-04
7.026195526123046875e-04
6.726980209350585938e-04
6.251335144042968750e-04
6.680488586425781250e-04
6.752014160156250000e-04
6.822347640991210938e-04
6.443262100219726562e-04
6.775856018066406250e-04
6.312131881713867188e-04
6.586313247680664062e-04
6.357431411743164062e-04
6.206035614013671875e-04
6.407499313354492188e-04
6.641149520874023438e-04
6.612539291381835938e-04
6.514787673950195312e-04
6.814002990722656250e-04
6.793737411499023438e-04
6.577968597412109375e-04
6.364583969116210938e-04
6.362199783325195312e-04
6.887912750244140625e-04
6.796121597290039062e-04
7.178783416748046875e-04
6.595849990844726562e-04
6.154775619506835938e-04
6.990432739257812500e-04
6.654262542724609375e-04
6.332397460937500000e-04
6.617307662963867188e-04
6.562471389770507812e-04
6.895065307617187500e-04
6.710290908813476562e-04
6.514787673950195312e-04
6.638765335083007812e-04
6.843805313110351562e-04
6.517171859741210938e-04
6.623268127441406250e-04
6.746053695678710938e-04
6.537437438964843750e-04
6.647109985351562500e-04
6.397962570190429688e-04
6.494522094726562500e-04
6.468296051025390625e-04
6.815195083618164062e-04
6.263256072998046875e-04
6.450414657592773438e-04
6.623268127441406250e-04
6.612539291381835938e-04
6.527900695800781250e-04
6.455183029174804688e-04
6.765127182006835938e-04
6.123781204223632812e-04
6.852149963378906250e-04
6.595849990844726562e-04
6.449222564697265625e-04
6.735324859619140625e-04
6.678104400634765625e-04
6.871223449707031250e-04
7.187128067016601562e-04
7.622241973876953125e-04
6.600618362426757812e-04
6.841421127319335938e-04
6.599426269531250000e-04
6.669759750366210938e-04
6.693601608276367188e-04
6.849765777587890625e-04
7.092952728271484375e-04
6.272792816162109375e-04
6.430149078369140625e-04
6.657838821411132812e-04
6.868839263916015625e-04
6.822347640991210938e-04
6.235837936401367188e-04
6.338357925415039062e-04
6.575584411621093750e-04
6.661415100097656250e-04
6.785392761230468750e-04
6.810426712036132812e-04
7.361173629760742188e-04
6.908178329467773438e-04
6.849765777587890625e-04
7.054805755615234375e-04
6.865262985229492188e-04
6.831884384155273438e-04
6.810426712036132812e-04
6.628036499023437500e-04
6.625652313232421875e-04
6.248950958251953125e-04
5.936622619628906250e-04
6.675720214843750000e-04
5.905628204345703125e-04
6.421804428100585938e-04
6.567239761352539062e-04
6.437301635742187500e-04
6.395578384399414062e-04
6.824731826782226562e-04
6.719827651977539062e-04
6.681680679321289062e-04
6.891489028930664062e-04
6.610155105590820312e-04
6.849765777587890625e-04
6.703138351440429688e-04
6.870031356811523438e-04
6.376504898071289062e-04
6.420612335205078125e-04
6.279945373535156250e-04
6.647109985351562500e-04
6.926059722900390625e-04
6.294250488281250000e-04
6.747245788574218750e-04
6.784200668334960938e-04
6.598234176635742188e-04
6.600618362426757812e-04
6.818771362304687500e-04
7.076263427734375000e-04
6.363391876220703125e-04
6.806850433349609375e-04
6.426572799682617188e-04
6.195306777954101562e-04
6.635189056396484375e-04
6.760358810424804688e-04
6.641149520874023438e-04
6.273984909057617188e-04
6.403923034667968750e-04
6.712675094604492188e-04
6.203651428222656250e-04
6.352663040161132812e-04
6.593465805053710938e-04
6.062984466552734375e-04
6.128549575805664062e-04
6.104707717895507812e-04
5.921125411987304688e-04
6.295442581176757812e-04
6.031990051269531250e-04
6.233453750610351562e-04
6.657838821411132812e-04
6.126165390014648438e-04
6.792545318603515625e-04
6.603002548217773438e-04
6.355047225952148438e-04
6.666183471679687500e-04
6.661415100097656250e-04
6.614923477172851562e-04
6.227493286132812500e-04
7.002353668212890625e-04
7.504224777221679688e-04
7.264614105224609375e-04
6.954669952392578125e-04
6.977319717407226562e-04
6.831884384155273438e-04
6.544589996337890625e-04
6.629228591918945312e-04
6.864070892333984375e-04
7.061958312988281250e-04
6.703138351440429688e-04
6.976127624511718750e-04
6.743669509887695312e-04
7.128715515136718750e-04
7.191896438598632812e-04
7.205009460449218750e-04
7.060766220092773438e-04
6.515979766845703125e-04
6.626844406127929688e-04
6.986856460571289062e-04
7.086992263793945312e-04
6.978511810302734375e-04
6.610155105590820312e-04
6.155967712402343750e-04
6.510019302368164062e-04
6.731748580932617188e-04
7.152557373046875000e-04
6.853342056274414062e-04
6.798505783081054688e-04
6.604194641113281250e-04
6.697177886962890625e-04
6.412267684936523438e-04
6.051063537597656250e-04
6.949901580810546875e-04
6.800889968872070312e-04
6.465911865234375000e-04
6.806850433349609375e-04
6.510019302368164062e-04
6.859302520751953125e-04
6.979703903198242188e-04
7.162094116210937500e-04
7.320642471313476562e-04
7.114410400390625000e-04
6.810426712036132812e-04
6.992816925048828125e-04
7.097721099853515625e-04
6.965398788452148438e-04
6.763935089111328125e-04
7.112026214599609375e-04
7.123947143554687500e-04
6.276369094848632812e-04
7.027387619018554688e-04
6.655454635620117188e-04
6.512403488159179688e-04
6.755590438842773438e-04
6.515979766845703125e-04
6.641149520874023438e-04
6.582736968994140625e-04
6.606578826904296875e-04
6.496906280517578125e-04
6.616115570068359375e-04
6.493330001831054688e-04
7.228851318359375000e-04
6.655454635620117188e-04
6.681680679321289062e-04
6.380081176757812500e-04
6.133317947387695312e-04
6.455183029174804688e-04
6.489753723144531250e-04
6.644725799560546875e-04
6.424188613891601562e-04
6.452798843383789062e-04
6.574392318725585938e-04
6.492137908935546875e-04
6.862878799438476562e-04
6.605386734008789062e-04
6.271600723266601562e-04
6.656646728515625000e-04
6.498098373413085938e-04
6.315708160400390625e-04
6.185770034790039062e-04
6.552934646606445312e-04
6.508827209472656250e-04
6.470680236816406250e-04
6.541013717651367188e-04
6.650686264038085938e-04
6.463527679443359375e-04
6.265640258789062500e-04
6.444454193115234375e-04
6.669759750366210938e-04
6.755590438842773438e-04
6.041526794433593750e-04
6.405115127563476562e-04
6.195306777954101562e-04
5.978345870971679688e-04
6.510019302368164062e-04
5.980730056762695312e-04
6.023645401000976562e-04
5.953311920166015625e-04
6.009340286254882812e-04
6.505250930786132812e-04
5.970001220703125000e-04
5.911588668823242188e-04
6.434917449951171875e-04
6.275177001953125000e-04
6.338357925415039062e-04
5.714893341064453125e-04
5.581378936767578125e-04
5.750656127929687500e-04
6.016492843627929688e-04
5.805492401123046875e-04
5.680322647094726562e-04
5.683898925781250000e-04
5.388259887695312500e-04
5.979537963867187500e-04
6.034374237060546875e-04
6.074905395507812500e-04
6.073713302612304688e-04
6.166696548461914062e-04
6.104707717895507812e-04
6.157159805297851562e-04
6.021261215209960938e-04
6.039142608642578125e-04
5.813837051391601562e-04
6.135702133178710938e-04
6.467103958129882812e-04
6.266832351684570312e-04
6.513595581054687500e-04
6.071329116821289062e-04
5.321502685546875000e-04
6.088018417358398438e-04
5.964040756225585938e-04
6.314516067504882812e-04
6.217956542968750000e-04
6.185770034790039062e-04
6.279945373535156250e-04
6.351470947265625000e-04
6.618499755859375000e-04
6.670951843261718750e-04
6.678104400634765625e-04
6.451606750488281250e-04
6.335973739624023438e-04
6.419420242309570312e-04
5.826950073242187500e-04
5.975961685180664062e-04
6.241798400878906250e-04
6.179809570312500000e-04
6.662607192993164062e-04
6.691217422485351562e-04
6.666183471679687500e-04
5.882978439331054688e-04
5.742311477661132812e-04
5.848407745361328125e-04
6.308555603027343750e-04
6.262063980102539062e-04
5.921125411987304688e-04
6.268024444580078125e-04
5.680322647094726562e-04
5.757808685302734375e-04
6.147623062133789062e-04
5.747079849243164062e-04
5.862712860107421875e-04
6.114244461059570312e-04
6.269216537475585938e-04
6.328821182250976562e-04
6.076097488403320312e-04
5.835294723510742188e-04
5.658864974975585938e-04
6.188154220581054688e-04
5.741119384765625000e-04
6.006956100463867188e-04
5.913972854614257812e-04
6.072521209716796875e-04
5.812644958496093750e-04
5.968809127807617188e-04
6.403923034667968750e-04
5.885362625122070312e-04
5.970001220703125000e-04
6.203651428222656250e-04
6.400346755981445312e-04
6.377696990966796875e-04
6.259679794311523438e-04
5.639791488647460938e-04
5.913972854614257812e-04
5.884170532226562500e-04
6.315708160400390625e-04
6.051063537597656250e-04
5.593299865722656250e-04
5.489587783813476562e-04
5.658864974975585938e-04
6.027221679687500000e-04
6.033182144165039062e-04
6.400346755981445312e-04
6.059408187866210938e-04
5.388259887695312500e-04
5.607604980468750000e-04
5.558729171752929688e-04
5.472898483276367188e-04
5.900859832763671875e-04
5.987882614135742188e-04
6.208419799804687500e-04
5.651712417602539062e-04
6.042718887329101562e-04
5.500316619873046875e-04
5.395412445068359375e-04
6.192922592163085938e-04
5.508661270141601562e-04
6.220340728759765625e-04
5.476474761962890625e-04
5.295276641845703125e-04
5.720853805541992188e-04
5.716085433959960938e-04
5.649328231811523438e-04
5.660057067871093750e-04
5.886554718017578125e-04
5.679130554199218750e-04
6.005764007568359375e-04
5.605220794677734375e-04
5.369186401367187500e-04
5.578994750976562500e-04
5.792379379272460938e-04
5.958080291748046875e-04
5.254745483398437500e-04
5.532503128051757812e-04
5.959272384643554688e-04
5.676746368408203125e-04
5.559921264648437500e-04
6.070137023925781250e-04
5.615949630737304688e-04
5.967617034912109375e-04
6.129741668701171875e-04
5.435943603515625000e-04
5.948543548583984375e-04
5.456209182739257812e-04
5.612373352050781250e-04
5.962848663330078125e-04
5.538463592529296875e-04
5.800724029541015625e-04
5.732774734497070312e-04
5.637407302856445312e-04
5.668401718139648438e-04
5.384683609008789062e-04
5.713701248168945312e-04
5.574226379394531250e-04
5.255937576293945312e-04
5.793571472167968750e-04
5.650520324707031250e-04
5.708932876586914062e-04
5.561113357543945312e-04
5.556344985961914062e-04
5.407333374023437500e-04
5.668401718139648438e-04
5.704164505004882812e-04
5.946159362792968750e-04
5.285739898681640625e-04
5.550384521484375000e-04
5.735158920288085938e-04
5.551576614379882812e-04
5.494356155395507812e-04
5.390644073486328125e-04
5.824565887451171875e-04
5.723237991333007812e-04
6.146430969238281250e-04
6.026029586791992188e-04
5.444288253784179688e-04
4.897117614746093750e-04
5.481243133544921875e-04
5.288124084472656250e-04
5.744695663452148438e-04
5.873441696166992188e-04
5.418062210083007812e-04
5.434751510620117188e-04
5.471706390380859375e-04
5.732774734497070312e-04
5.292892456054687500e-04
5.896091461181640625e-04
5.613565444946289062e-04
5.584955215454101562e-04
5.925893783569335938e-04
5.911588668823242188e-04
5.882978439331054688e-04
5.728006362915039062e-04
5.441904067993164062e-04
5.640983581542968750e-04
5.592107772827148438e-04
5.245208740234375000e-04
5.545616149902343750e-04
5.526542663574218750e-04
5.624294281005859375e-04
5.422830581665039062e-04
5.544424057006835938e-04
5.184412002563476562e-04
5.390644073486328125e-04
5.166530609130859375e-04
5.046129226684570312e-04
5.546808242797851562e-04
5.910396575927734375e-04
5.483627319335937500e-04
5.432367324829101562e-04
5.300045013427734375e-04
4.860162734985351562e-04
5.294084548950195312e-04
5.064010620117187500e-04
5.278587341308593750e-04
5.116462707519531250e-04
5.573034286499023438e-04
5.010366439819335938e-04
5.569458007812500000e-04
6.009340286254882812e-04
5.195140838623046875e-04
5.224943161010742188e-04
5.680322647094726562e-04
7.475614547729492188e-04
7.129907608032226562e-04
7.137060165405273438e-04
7.520914077758789062e-04
7.538795471191406250e-04
7.543563842773437500e-04
7.591247558593750000e-04
7.543563842773437500e-04
7.297992706298828125e-04
6.984472274780273438e-04
7.109642028808593750e-04
7.315874099731445312e-04
7.110834121704101562e-04
7.276535034179687500e-04
7.586479187011718750e-04
7.462501525878906250e-04
8.989572525024414062e-04
9.212493896484375000e-04
9.611845016479492188e-04
9.300708770751953125e-04
8.890628814697265625e-04
9.279251098632812500e-04
9.226799011230468750e-04
8.918046951293945312e-04
8.550882339477539062e-04
8.615255355834960938e-04
8.516311645507812500e-04
8.546113967895507812e-04
8.368492126464843750e-04
8.285045623779296875e-04
9.059906005859375000e-04
8.851289749145507812e-04
9.789466857910156250e-04
1.176714897155761719e-03
1.160025596618652344e-03
1.198053359985351562e-03
1.125574111938476562e-03
1.126408576965332031e-03
1.119852066040039062e-03
1.107931137084960938e-03
1.025676727294921875e-03
1.009345054626464844e-03
1.010179519653320312e-03
9.790658950805664062e-04
9.888410568237304688e-04
9.635686874389648438e-04
9.669065475463867188e-04
1.032710075378417969e-03
1.078486442565917969e-03
1.263022422790527344e-03
1.357674598693847656e-03
1.316905021667480469e-03
1.327633857727050781e-03
1.339316368103027344e-03
1.302719116210937500e-03
1.274824142456054688e-03
1.260280609130859375e-03
1.173019409179687500e-03
1.142144203186035156e-03
1.152873039245605469e-03
1.108527183532714844e-03
1.135110855102539062e-03
1.115202903747558594e-03
1.161932945251464844e-03
1.176714897155761719e-03
1.267910003662109375e-03
1.469850540161132812e-03
1.490116119384765625e-03
1.489281654357910156e-03
1.490354537963867188e-03
1.489043235778808594e-03
1.461386680603027344e-03
1.428842544555664062e-03
1.338005065917968750e-03
1.263260841369628906e-03
1.219034194946289062e-03
1.199841499328613281e-03
1.214623451232910156e-03
1.229643821716308594e-03
1.289844512939453125e-03
1.283049583435058594e-03
1.393914222717285156e-03
1.606941223144531250e-03
1.640319824218750000e-03
1.673221588134765625e-03
1.677393913269042969e-03
1.701831817626953125e-03
1.643657684326171875e-03
1.491904258728027344e-03
1.459360122680664062e-03
1.415371894836425781e-03
1.328945159912109375e-03
1.292943954467773438e-03
1.269221305847167969e-03
1.379847526550292969e-03
1.420617103576660156e-03
1.434803009033203125e-03
1.510500907897949219e-03
1.674294471740722656e-03
1.768350601196289062e-03
1.807332038879394531e-03
1.737833023071289062e-03
1.730322837829589844e-03
1.736164093017578125e-03
1.697063446044921875e-03
1.568317413330078125e-03
1.405477523803710938e-03
1.361131668090820312e-03
1.366138458251953125e-03
1.344084739685058594e-03
1.305818557739257812e-03
1.324772834777832031e-03
1.352190971374511719e-03
1.523137092590332031e-03
1.599907875061035156e-03
1.638054847717285156e-03
1.724958419799804688e-03
1.851558685302734375e-03
2.002358436584472656e-03
1.634001731872558594e-03
1.592159271240234375e-03
1.468658447265625000e-03
1.691818237304687500e-03
1.107931137084960938e-03
4.686117172241210938e-04
4.509687423706054688e-04
8.254051208496093750e-04
1.574993133544921875e-03
1.491785049438476562e-03
1.550316810607910156e-03
1.642942428588867188e-03
2.039551734924316406e-03
2.151250839233398438e-03
2.143859863281250000e-03
2.124190330505371094e-03
2.151131629943847656e-03
2.045512199401855469e-03
1.918792724609375000e-03
1.753091812133789062e-03
1.699090003967285156e-03
1.704812049865722656e-03
1.635193824768066406e-03
1.509308815002441406e-03
1.458525657653808594e-03
1.609683036804199219e-03
1.798152923583984375e-03
1.802563667297363281e-03
1.911044120788574219e-03
2.083301544189453125e-03
2.092242240905761719e-03
2.151131629943847656e-03
2.106904983520507812e-03
2.048850059509277344e-03
2.005815505981445312e-03
1.875638961791992188e-03
1.706838607788085938e-03
1.648783683776855469e-03
1.619219779968261719e-03
1.610636711120605469e-03
1.633644104003906250e-03
1.546502113342285156e-03
1.533865928649902344e-03
1.636862754821777344e-03
1.845479011535644531e-03
2.096295356750488281e-03
2.154111862182617188e-03
2.188801765441894531e-03
2.223849296569824219e-03
2.206206321716308594e-03
2.132773399353027344e-03
2.041935920715332031e-03
1.991748809814453125e-03
1.834273338317871094e-03
1.674175262451171875e-03
1.657366752624511719e-03
1.679539680480957031e-03
1.770138740539550781e-03
1.734733581542968750e-03
1.745820045471191406e-03
1.812100410461425781e-03
2.163767814636230469e-03
2.352833747863769531e-03
2.367734909057617188e-03
2.440690994262695312e-03
2.380251884460449219e-03
2.376198768615722656e-03
2.312302589416503906e-03
2.193331718444824219e-03
2.182126045227050781e-03
2.129197120666503906e-03
2.105355262756347656e-03
1.947999000549316406e-03
1.927137374877929688e-03
1.967430114746093750e-03
1.994132995605468750e-03
2.042651176452636719e-03
2.068519592285156250e-03
2.195239067077636719e-03
2.223134040832519531e-03
2.262949943542480469e-03
2.262592315673828125e-03
2.338290214538574219e-03
2.354621887207031250e-03
2.273797988891601562e-03
2.143144607543945312e-03
2.129793167114257812e-03
2.074956893920898438e-03
2.078056335449218750e-03
2.021551132202148438e-03
1.915216445922851562e-03
1.954555511474609375e-03
1.972675323486328125e-03
1.994013786315917969e-03
2.124428749084472656e-03
2.179265022277832031e-03
2.263188362121582031e-03
2.269506454467773438e-03
2.231955528259277344e-03
2.299189567565917969e-03
2.304792404174804688e-03
2.296209335327148438e-03
2.189636230468750000e-03
2.106785774230957031e-03
2.054095268249511719e-03
2.077341079711914062e-03
2.073526382446289062e-03
2.026796340942382812e-03
1.998186111450195312e-03
2.018332481384277344e-03
2.106785774230957031e-03
2.215981483459472656e-03
2.254366874694824219e-03
2.203464508056640625e-03
2.224683761596679688e-03
2.312064170837402344e-03
2.265810966491699219e-03
2.209424972534179688e-03
2.177119255065917969e-03
2.118349075317382812e-03
2.118945121765136719e-03
2.094507217407226562e-03
2.074003219604492188e-03
2.075552940368652344e-03
2.098798751831054688e-03
2.098083496093750000e-03
2.116203308105468750e-03
2.162694931030273438e-03
2.173781394958496094e-03
2.222776412963867188e-03
2.226710319519042969e-03
2.195835113525390625e-03
2.186059951782226562e-03
2.218842506408691406e-03
2.196907997131347656e-03
2.150893211364746094e-03
2.170920372009277344e-03
2.151608467102050781e-03
2.085685729980468750e-03
2.031326293945312500e-03
2.062320709228515625e-03
2.086043357849121094e-03
2.125859260559082031e-03
2.103090286254882812e-03
2.082467079162597656e-03
2.113819122314453125e-03
2.107381820678710938e-03
2.169489860534667969e-03
2.144217491149902344e-03
2.129077911376953125e-03
2.114772796630859375e-03
2.101540565490722656e-03
2.054572105407714844e-03
1.989483833312988281e-03
2.050399780273437500e-03
2.058386802673339844e-03
1.988768577575683594e-03
2.000689506530761719e-03
1.956701278686523438e-03
2.031683921813964844e-03
2.139806747436523438e-03
2.127408981323242188e-03
2.118825912475585938e-03
2.145290374755859375e-03
2.201437950134277344e-03
2.105593681335449219e-03
2.098679542541503906e-03
2.179265022277832031e-03
2.047061920166015625e-03
2.047538757324218750e-03
2.050399780273437500e-03
2.004981040954589844e-03
2.022624015808105469e-03
2.022385597229003906e-03
2.044677734375000000e-03
1.967072486877441406e-03
1.970529556274414062e-03
2.031445503234863281e-03
2.002000808715820312e-03
2.007365226745605469e-03
1.972675323486328125e-03
2.059102058410644531e-03
2.055406570434570312e-03
2.039074897766113281e-03
2.046823501586914062e-03
1.995682716369628906e-03
1.988649368286132812e-03
1.987218856811523438e-03
1.932263374328613281e-03
1.930713653564453125e-03
1.815080642700195312e-03
1.875162124633789062e-03
1.973390579223632812e-03
1.987576484680175781e-03
2.013206481933593750e-03
1.996874809265136719e-03
1.993536949157714844e-03
1.965522766113281250e-03
2.018928527832031250e-03
2.047061920166015625e-03
2.034783363342285156e-03
2.016782760620117188e-03
2.017140388488769531e-03
1.986742019653320312e-03
2.000093460083007812e-03
1.957178115844726562e-03
1.892566680908203125e-03
1.887440681457519531e-03
1.946926116943359375e-03
1.909017562866210938e-03
1.888990402221679688e-03
1.841902732849121094e-03
1.835227012634277344e-03
1.932740211486816406e-03
1.902937889099121094e-03
1.922130584716796875e-03
1.913070678710937500e-03
1.936554908752441406e-03
1.897692680358886719e-03
1.925349235534667969e-03
1.930236816406250000e-03
1.872658729553222656e-03
1.873016357421875000e-03
1.782178878784179688e-03
1.751661300659179688e-03
1.826763153076171875e-03
1.826047897338867188e-03
1.800298690795898438e-03
1.772999763488769531e-03
1.762032508850097656e-03
1.763582229614257812e-03
1.754045486450195312e-03
1.799583435058593750e-03
1.764535903930664062e-03
1.759529113769531250e-03
1.833558082580566406e-03
1.789927482604980469e-03
1.788616180419921875e-03
1.789212226867675781e-03
1.778244972229003906e-03
1.788377761840820312e-03
1.698374748229980469e-03
1.660227775573730469e-03
1.659989356994628906e-03
1.667499542236328125e-03
1.671791076660156250e-03
1.680493354797363281e-03
1.716375350952148438e-03
1.692533493041992188e-03
1.633286476135253906e-03
1.703739166259765625e-03
1.738071441650390625e-03
1.700878143310546875e-03
1.737833023071289062e-03
1.740455627441406250e-03
1.725316047668457031e-03
1.674056053161621094e-03
1.649618148803710938e-03
1.588225364685058594e-03
1.538991928100585938e-03
1.489520072937011719e-03
1.462101936340332031e-03
1.519680023193359375e-03
1.532793045043945312e-03
1.496553421020507812e-03
1.509189605712890625e-03
1.519799232482910156e-03
1.556992530822753906e-03
1.554369926452636719e-03
1.496434211730957031e-03
1.547813415527343750e-03
1.568436622619628906e-03
1.526474952697753906e-03
1.534461975097656250e-03
1.500964164733886719e-03
1.450300216674804688e-03
1.485824584960937500e-03
1.443624496459960938e-03
1.377105712890625000e-03
1.380920410156250000e-03
1.441955566406250000e-03
1.442790031433105469e-03
1.459956169128417969e-03
1.496315002441406250e-03
1.494765281677246094e-03
1.445651054382324219e-03
1.462578773498535156e-03
1.462459564208984375e-03
1.428008079528808594e-03
1.458287239074707031e-03
1.409053802490234375e-03
1.319885253906250000e-03
1.302123069763183594e-03
1.302242279052734375e-03
1.296758651733398438e-03
1.259684562683105469e-03
1.289725303649902344e-03
1.287341117858886719e-03
1.243472099304199219e-03
1.279473304748535156e-03
1.285672187805175781e-03
1.305580139160156250e-03
1.232266426086425781e-03
1.266837120056152344e-03
1.256585121154785156e-03
1.268982887268066406e-03
1.258969306945800781e-03
1.242399215698242188e-03
1.213550567626953125e-03
1.229882240295410156e-03
1.206278800964355469e-03
1.188039779663085938e-03
1.190304756164550781e-03
1.234412193298339844e-03
1.233339309692382812e-03
1.170992851257324219e-03
1.206398010253906250e-03
1.190900802612304688e-03
1.239061355590820312e-03
1.232981681823730469e-03
1.259565353393554688e-03
1.201272010803222656e-03
1.215696334838867188e-03
1.188397407531738281e-03
1.089930534362792969e-03
1.082897186279296875e-03
1.084685325622558594e-03
1.061320304870605469e-03
1.060485839843750000e-03
1.024723052978515625e-03
1.032590866088867188e-03
1.066446304321289062e-03
1.092314720153808594e-03
1.071214675903320312e-03
1.058340072631835938e-03
1.086354255676269531e-03
1.046895980834960938e-03
1.097559928894042969e-03
1.108646392822265625e-03
1.121759414672851562e-03
1.023292541503906250e-03
9.803771972656250000e-04
8.875131607055664062e-04
8.533000946044921875e-04
9.075403213500976562e-04
8.842945098876953125e-04
8.906126022338867188e-04
8.754730224609375000e-04
8.947849273681640625e-04
9.438991546630859375e-04
9.295940399169921875e-04
9.489059448242187500e-04
9.666681289672851562e-04
9.593963623046875000e-04
9.447336196899414062e-04
9.214878082275390625e-04
8.466243743896484375e-04
7.256269454956054688e-04
7.514953613281250000e-04
7.358789443969726562e-04
7.172822952270507812e-04
7.537603378295898438e-04
7.592439651489257812e-04
8.107423782348632812e-04
7.717609405517578125e-04
8.198022842407226562e-04
8.448362350463867188e-04
8.397102355957031250e-04
7.969141006469726562e-04
8.275508880615234375e-04
8.161067962646484375e-04
7.402896881103515625e-04
7.865428924560546875e-04
6.755590438842773438e-04
6.220340728759765625e-04
6.226301193237304688e-04
5.910396575927734375e-04
6.198883056640625000e-04
5.635023117065429688e-04
6.363391876220703125e-04
6.752014160156250000e-04
6.914138793945312500e-04
6.660223007202148438e-04
7.247924804687500000e-04
7.193088531494140625e-04
6.089210510253906250e-04
6.227493286132812500e-04
6.002187728881835938e-04
6.570816040039062500e-04
3.761053085327148438e-04
2.226829528808593750e-04
2.820491790771484375e-04
2.532005310058593750e-04
2.551078796386718750e-04
2.996921539306640625e-04
2.890825271606445312e-04
3.221035003662109375e-04
3.235340118408203125e-04
3.975629806518554688e-04
3.808736801147460938e-04
3.105401992797851562e-04
3.765821456909179688e-04
3.734827041625976562e-04
3.590583801269531250e-04
3.010034561157226562e-04
1.779794692993164062e-04
6.091594696044921875e-05
5.006790161132812500e-05
3.218650817871093750e-06
-4.553794860839843750e-05
-4.267692565917968750e-05
9.894371032714843750e-06
5.733966827392578125e-05
1.229047775268554688e-04
1.248121261596679688e-04
1.331567764282226562e-04
1.490116119384765625e-04
1.919269561767578125e-04
1.504421234130859375e-04
1.308917999267578125e-04
1.149177551269531250e-04
5.161762237548828125e-05
-8.630752563476562500e-05
-1.316070556640625000e-04
-1.498460769653320312e-04
-1.822710037231445312e-04
-1.906156539916992188e-04
-9.131431579589843750e-05
-1.657009124755859375e-05
-6.794929504394531250e-05
5.197525024414062500e-05
4.136562347412109375e-05
-9.775161743164062500e-06
7.843971252441406250e-05
4.160404205322265625e-05
3.612041473388671875e-05
-1.406669616699218750e-05
-8.952617645263671875e-05
-1.524686813354492188e-04
-3.575086593627929688e-04
-3.334283828735351562e-04
-3.812313079833984375e-04
-3.823041915893554688e-04
-3.633499145507812500e-04
-4.012584686279296875e-04
-3.211498260498046875e-04
-2.892017364501953125e-04
-1.869201660156250000e-04
-1.367330551147460938e-04
-9.465217590332031250e-05
-1.158714294433593750e-04
-1.209974288940429688e-04
-1.430511474609375000e-04
-2.026557922363281250e-04
-1.826286315917968750e-04
-4.332065582275390625e-04
-5.733966827392578125e-04
-5.187988281250000000e-04
-5.227327346801757812e-04
-5.770921707153320312e-04
-5.499124526977539062e-04
-4.988908767700195312e-04
-2.982616424560546875e-04
-3.151893615722656250e-04
-3.331899642944335938e-04
-3.267526626586914062e-04
-3.101825714111328125e-04
-3.237724304199218750e-04
-2.866983413696289062e-04
-3.547668457031250000e-04
-3.978013992309570312e-04
-4.737377166748046875e-04
-6.066560745239257812e-04
-6.594657897949218750e-04
-6.414651870727539062e-04
-6.492137908935546875e-04
-6.395578384399414062e-04
-5.915164947509765625e-04
-6.403923034667968750e-04
-5.606412887573242188e-04
-5.079507827758789062e-04
-5.103349685668945312e-04
-3.982782363891601562e-04
-3.225803375244140625e-04
-4.034042358398437500e-04
-4.413127899169921875e-04
-4.816055297851562500e-04
-5.639791488647460938e-04
-7.836818695068359375e-04
-8.033514022827148438e-04
-8.451938629150390625e-04
-8.574724197387695312e-04
-8.707046508789062500e-04
-9.187459945678710938e-04
-7.631778717041015625e-04
-7.179975509643554688e-04
-7.383823394775390625e-04
-6.284713745117187500e-04
-6.010532379150390625e-04
-6.357431411743164062e-04
-6.130933761596679688e-04
-5.900859832763671875e-04
-6.173849105834960938e-04
-6.307363510131835938e-04
-8.963346481323242188e-04
-9.299516677856445312e-04
-1.009464263916015625e-03
-1.075506210327148438e-03
-1.039028167724609375e-03
-1.074314117431640625e-03
-1.017808914184570312e-03
-9.531974792480468750e-04
-9.019374847412109375e-04
-8.957386016845703125e-04
-8.260011672973632812e-04
-7.383823394775390625e-04
-7.582902908325195312e-04
-7.188320159912109375e-04
-7.758140563964843750e-04
-7.839202880859375000e-04
-8.456707000732421875e-04
-1.021027565002441406e-03
-1.059293746948242188e-03
-1.116871833801269531e-03
-1.102089881896972656e-03
-1.135826110839843750e-03
-1.148223876953125000e-03
-1.089811325073242188e-03
-1.077175140380859375e-03
-1.020431518554687500e-03
-9.711980819702148438e-04
-9.202957153320312500e-04
-8.721351623535156250e-04
-9.095668792724609375e-04
-9.142160415649414062e-04
-9.183883666992187500e-04
-9.534358978271484375e-04
-1.180291175842285156e-03
-1.193881034851074219e-03
-1.217126846313476562e-03
-1.254439353942871094e-03
-1.254320144653320312e-03
-1.273512840270996094e-03
-1.247525215148925781e-03
-1.348972320556640625e-03
-1.223802566528320312e-03
-1.175880432128906250e-03
-1.179814338684082031e-03
-1.119852066040039062e-03
-1.107454299926757812e-03
-1.106023788452148438e-03
-1.092791557312011719e-03
-1.125216484069824219e-03
-1.251578330993652344e-03
-1.338720321655273438e-03
-1.367807388305664062e-03
-1.401782035827636719e-03
-1.406073570251464844e-03
-1.400947570800781250e-03
-1.482725143432617188e-03
-1.467823982238769531e-03
-1.411914825439453125e-03
-1.369953155517578125e-03
-1.339673995971679688e-03
-1.258134841918945312e-03
-1.298308372497558594e-03
-1.286745071411132812e-03
-1.279950141906738281e-03
-1.260399818420410156e-03
-1.241087913513183594e-03
-1.256465911865234375e-03
-1.252293586730957031e-03
-1.333117485046386719e-03
-1.311421394348144531e-03
-1.347780227661132812e-03
-1.362442970275878906e-03
-1.418709754943847656e-03
-1.395940780639648438e-03
-1.383423805236816406e-03
-1.341581344604492188e-03
-1.306891441345214844e-03
-1.253008842468261719e-03
-1.217007637023925781e-03
-1.202225685119628906e-03
-1.227617263793945312e-03
-1.225113868713378906e-03
-1.256346702575683594e-03
-1.299977302551269531e-03
-1.320242881774902344e-03
-1.358270645141601562e-03
-1.369833946228027344e-03
-1.397967338562011719e-03
-1.397609710693359375e-03
-1.408934593200683594e-03
-1.395940780639648438e-03
-1.400113105773925781e-03
-1.352787017822265625e-03
-1.366138458251953125e-03
-1.330852508544921875e-03
-1.281619071960449219e-03
-1.273274421691894531e-03
-1.232743263244628906e-03
-1.250028610229492188e-03
-1.275777816772460938e-03
-1.280426979064941406e-03
-1.322031021118164062e-03
-1.361131668090820312e-03
-1.383781433105468750e-03
-1.329541206359863281e-03
-1.389384269714355469e-03
-1.357078552246093750e-03
-1.339673995971679688e-03
-1.373529434204101562e-03
-1.335024833679199219e-03
-1.331448554992675781e-03
-1.316785812377929688e-03
-1.286029815673828125e-03
-1.310467720031738281e-03
-1.297354698181152344e-03
-1.258730888366699219e-03
-1.247167587280273438e-03
-1.210331916809082031e-03
-1.266717910766601562e-03
-1.257061958312988281e-03
-1.279473304748535156e-03
-1.289486885070800781e-03
-1.301050186157226562e-03
-1.242399215698242188e-03
-1.231670379638671875e-03
-1.272082328796386719e-03
-1.197814941406250000e-03
-1.198172569274902344e-03
-1.224040985107421875e-03
-1.230955123901367188e-03
-1.174330711364746094e-03
-1.240968704223632812e-03
-1.157760620117187500e-03
-1.190543174743652344e-03
-1.202702522277832031e-03
-1.172065734863281250e-03
-1.163840293884277344e-03
-1.122474670410156250e-03
-1.132726669311523438e-03
-1.162171363830566406e-03
-1.163363456726074219e-03
-1.166820526123046875e-03
-1.144051551818847656e-03
-1.152515411376953125e-03
-1.174211502075195312e-03
-1.159429550170898438e-03
-1.126527786254882812e-03
-1.099467277526855469e-03
-1.166224479675292969e-03
-1.104593276977539062e-03
-1.126170158386230469e-03
-1.162171363830566406e-03
-1.122593879699707031e-03
-1.088023185729980469e-03
-1.141309738159179688e-03
-1.140713691711425781e-03
-1.118898391723632812e-03
-1.140952110290527344e-03
-1.135706901550292969e-03
-1.146674156188964844e-03
-1.115679740905761719e-03
-1.119613647460937500e-03
-1.117944717407226562e-03
-1.098036766052246094e-03
-1.180052757263183594e-03
-1.182436943054199219e-03
-1.141905784606933594e-03
-1.156568527221679688e-03
-1.183271408081054688e-03
-1.174449920654296875e-03
-1.144766807556152344e-03
-1.107811927795410156e-03
-1.187682151794433594e-03
-1.159191131591796875e-03
-1.120209693908691406e-03
-1.156330108642578125e-03
-1.152753829956054688e-03
-1.106381416320800781e-03
-1.116037368774414062e-03
-1.145601272583007812e-03
-1.059889793395996094e-03
-1.130938529968261719e-03
-1.106023788452148438e-03
-1.096844673156738281e-03
-1.171588897705078125e-03
-1.109600067138671875e-03
-1.104116439819335938e-03
-1.108050346374511719e-03
-1.067042350769042969e-03
-1.072883605957031250e-03
-1.132011413574218750e-03
-1.066446304321289062e-03
-1.073479652404785156e-03
-1.068234443664550781e-03
-1.058697700500488281e-03
-1.100540161132812500e-03
-1.088619232177734375e-03
-1.093864440917968750e-03
-1.034855842590332031e-03
-1.112580299377441406e-03
-1.024603843688964844e-03
-1.055479049682617188e-03
-1.064419746398925781e-03
-9.988546371459960938e-04
-1.074075698852539062e-03
-1.038670539855957031e-03
-1.050233840942382812e-03
-1.062989234924316406e-03
-1.060843467712402344e-03
-1.068711280822753906e-03
-1.039981842041015625e-03
-1.062989234924316406e-03
-1.087069511413574219e-03
-1.067519187927246094e-03
-1.085281372070312500e-03
-1.044154167175292969e-03
-1.042604446411132812e-03
-1.084923744201660156e-03
-1.072287559509277344e-03
-1.019716262817382812e-03
-9.946823120117187500e-04
-1.034855842590332031e-03
-1.010537147521972656e-03
-1.015424728393554688e-03
-1.013159751892089844e-03
-9.992122650146484375e-04
-9.837150573730468750e-04
-1.028299331665039062e-03
-1.017093658447265625e-03
-9.680986404418945312e-04
-1.025676727294921875e-03
-1.043319702148437500e-03
-9.036064147949218750e-04
-9.703636169433593750e-04
-1.002788543701171875e-03
-9.225606918334960938e-04
-9.562969207763671875e-04
-1.012921333312988281e-03
-9.781122207641601562e-04
-9.381771087646484375e-04
-9.737014770507812500e-04
-9.578466415405273438e-04
-1.001834869384765625e-03
-9.603500366210937500e-04
-9.667873382568359375e-04
-1.003265380859375000e-03
-9.285211563110351562e-04
-9.691715240478515625e-04
-9.683370590209960938e-04
-8.934736251831054688e-04
-9.332895278930664062e-04
-9.487867355346679688e-04
-9.672641754150390625e-04
-9.170770645141601562e-04
-8.983612060546875000e-04
-9.163618087768554688e-04
-9.099245071411132812e-04
-8.811950683593750000e-04
-8.664131164550781250e-04
-9.139776229858398438e-04
-9.413957595825195312e-04
-9.397268295288085938e-04
-9.156465530395507812e-04
-9.545087814331054688e-04
-9.022951126098632812e-04
-9.114742279052734375e-04
-8.956193923950195312e-04
-8.929967880249023438e-04
-9.318590164184570312e-04
-9.200572967529296875e-04
-9.292364120483398438e-04
-8.476972579956054688e-04
-8.605718612670898438e-04
-8.459091186523437500e-04
-9.036064147949218750e-04
-9.114742279052734375e-04
-8.839368820190429688e-04
-8.770227432250976562e-04
-9.212493896484375000e-04
-9.031295776367187500e-04
-9.008646011352539062e-04
-9.223222732543945312e-04
-8.311271667480468750e-04
-9.477138519287109375e-04
-8.388757705688476562e-04
-8.554458618164062500e-04
-8.572340011596679688e-04
-8.224248886108398438e-04
-8.416175842285156250e-04
-8.559226989746093750e-04
-8.537769317626953125e-04
-8.503198623657226562e-04
-9.342432022094726562e-04
-8.194446563720703125e-04
-8.009672164916992188e-04
-8.758306503295898438e-04
-8.710622787475585938e-04
-8.192062377929687500e-04
-8.178949356079101562e-04
-7.970333099365234375e-04
-8.572340011596679688e-04
-8.642673492431640625e-04
-7.990598678588867188e-04
-7.636547088623046875e-04
-7.908344268798828125e-04
-8.469820022583007812e-04
-7.946491241455078125e-04
-7.528066635131835938e-04
-7.686614990234375000e-04
-8.306503295898437500e-04
-7.896423339843750000e-04
-7.636547088623046875e-04
-7.668733596801757812e-04
-7.518529891967773438e-04
-7.834434509277343750e-04
-7.902383804321289062e-04
-8.242130279541015625e-04
-7.954835891723632812e-04
-7.710456848144531250e-04
-7.890462875366210938e-04
-7.439851760864257812e-04
-8.442401885986328125e-04
-9.697675704956054688e-04
-9.460449218750000000e-04
-9.226799011230468750e-04
-7.029771804809570312e-04
-9.838342666625976562e-04
-9.223222732543945312e-04
-9.951591491699218750e-04
-6.608963012695312500e-04
-1.038789749145507812e-03
-1.676201820373535156e-03
-1.574754714965820312e-03
-1.327037811279296875e-03
-6.191730499267578125e-04
-7.522106170654296875e-04
-7.356405258178710938e-04
-7.450580596923828125e-04
-6.638765335083007812e-04
-6.783008575439453125e-04
-7.386207580566406250e-04
-7.485151290893554688e-04
-6.983280181884765625e-04
-6.843805313110351562e-04
-7.144212722778320312e-04
-7.026195526123046875e-04
-6.781816482543945312e-04
-6.939172744750976562e-04
-6.700754165649414062e-04
-6.935596466064453125e-04
-7.246732711791992188e-04
-6.382465362548828125e-04
-6.548166275024414062e-04
-6.920099258422851562e-04
-6.870031356811523438e-04
-6.877183914184570312e-04
-6.115436553955078125e-04
-6.368160247802734375e-04
-7.002353668212890625e-04
-6.742477416992187500e-04
-6.643533706665039062e-04
-6.115436553955078125e-04
-6.523132324218750000e-04
-6.963014602661132812e-04
-6.704330444335937500e-04
-6.583929061889648438e-04
-6.270408630371093750e-04
-6.741285324096679688e-04
-6.934404373168945312e-04
-6.401538848876953125e-04
-5.744695663452148438e-04
-6.343126296997070312e-04
-6.301403045654296875e-04
-6.339550018310546875e-04
-6.426572799682617188e-04
-6.079673767089843750e-04
-5.944967269897460938e-04
-5.872249603271484375e-04
-6.273984909057617188e-04
-6.514787673950195312e-04
-6.759166717529296875e-04
-6.551742553710937500e-04
-6.815195083618164062e-04
-5.686283111572265625e-04
-5.793571472167968750e-04
-6.622076034545898438e-04
-6.229877471923828125e-04
-5.633831024169921875e-04
-5.797147750854492188e-04
-6.589889526367187500e-04
-6.263256072998046875e-04
-6.226301193237304688e-04
-5.729198455810546875e-04
-5.919933319091796875e-04
-6.293058395385742188e-04
-5.491971969604492188e-04
-5.626678466796875000e-04
-5.712509155273437500e-04
-5.918741226196289062e-04
-6.287097930908203125e-04
-5.688667297363281250e-04
-5.906820297241210938e-04
-5.935430526733398438e-04
-6.333589553833007812e-04
-6.214380264282226562e-04
-5.689859390258789062e-04
-5.437135696411132812e-04
-5.822181701660156250e-04
-6.101131439208984375e-04
-5.459785461425781250e-04
-5.089044570922851562e-04
-5.259513854980468750e-04
-5.542039871215820312e-04
-5.775690078735351562e-04
-5.838871002197265625e-04
-5.395412445068359375e-04
-5.587339401245117188e-04
-5.742311477661132812e-04
-5.887746810913085938e-04
-5.574226379394531250e-04
-5.877017974853515625e-04
-6.911754608154296875e-04
-6.022453308105468750e-04
-5.366802215576171875e-04
-5.278587341308593750e-04
-5.075931549072265625e-04
-6.065368652343750000e-04
-6.003379821777343750e-04
-5.117654800415039062e-04
-5.286931991577148438e-04
-5.588531494140625000e-04
-5.600452423095703125e-04
-5.273818969726562500e-04
-5.244016647338867188e-04
-5.487203598022460938e-04
-5.546808242797851562e-04
-5.426406860351562500e-04
-4.554986953735351562e-04
-5.306005477905273438e-04
-5.295276641845703125e-04
-5.424022674560546875e-04
-5.223751068115234375e-04
-5.108118057250976562e-04
-4.742145538330078125e-04
-5.036592483520507812e-04
-4.839897155761718750e-04
-4.445314407348632812e-04
-5.266666412353515625e-04
-5.207061767578125000e-04
-5.265474319458007812e-04
-4.601478576660156250e-04
-4.955530166625976562e-04
-4.822015762329101562e-04
-5.052089691162109375e-04
-4.564523696899414062e-04
-4.426240921020507812e-04
-4.860162734985351562e-04
-4.568099975585937500e-04
-4.914999008178710938e-04
-4.725456237792968750e-04
-4.862546920776367188e-04
-4.310607910156250000e-04
-4.597902297973632812e-04
-4.431009292602539062e-04
-4.709959030151367188e-04
-5.004405975341796875e-04
-4.670619964599609375e-04
-4.249811172485351562e-04
-4.051923751831054688e-04
-4.832744598388671875e-04
-4.765987396240234375e-04
-5.117654800415039062e-04
-4.234313964843750000e-04
-4.312992095947265625e-04
-4.563331604003906250e-04
-4.788637161254882812e-04
-4.945993423461914062e-04
-4.706382751464843750e-04
-4.295110702514648438e-04
-4.278421401977539062e-04
-4.365444183349609375e-04
-4.223585128784179688e-04
-4.128217697143554688e-04
-4.390478134155273438e-04
-4.774332046508789062e-04
-4.546642303466796875e-04
-3.844499588012695312e-04
-4.215240478515625000e-04
-4.091262817382812500e-04
-4.496574401855468750e-04
-4.585981369018554688e-04
-3.641843795776367188e-04
-3.925561904907226562e-04
-4.332065582275390625e-04
-4.316568374633789062e-04
-4.148483276367187500e-04
-4.625320434570312500e-04
-4.473924636840820312e-04
-4.638433456420898438e-04
-4.327297210693359375e-04
-3.713369369506835938e-04
-4.007816314697265625e-04
-4.462003707885742188e-04
-4.727840423583984375e-04
-3.874301910400390625e-04
-4.127025604248046875e-04
-4.473924636840820312e-04
-3.986358642578125000e-04
-4.339218139648437500e-04
-4.532337188720703125e-04
-4.392862319946289062e-04
-4.116296768188476562e-04
-4.162788391113281250e-04
-3.979206085205078125e-04
-3.657341003417968750e-04
-4.159212112426757812e-04
-4.119873046875000000e-04
-4.044771194458007812e-04
-4.068613052368164062e-04
-4.160404205322265625e-04
-4.441738128662109375e-04
-3.752708435058593750e-04
-3.867149353027343750e-04
-4.167556762695312500e-04
-3.778934478759765625e-04
-3.794431686401367188e-04
-4.010200500488281250e-04
-3.957748413085937500e-04
-4.031658172607421875e-04
-3.789663314819335938e-04
-3.719329833984375000e-04
-3.598928451538085938e-04
-3.312826156616210938e-04
-3.271102905273437500e-04
-3.430843353271484375e-04
-3.863573074340820312e-04
-3.569126129150390625e-04
-3.906488418579101562e-04
-3.970861434936523438e-04
-2.868175506591796875e-04
-3.491640090942382812e-04
-3.679990768432617188e-04
-3.520250320434570312e-04
-3.885030746459960938e-04
-3.490447998046875000e-04
-3.578662872314453125e-04
-3.893375396728515625e-04
-4.028081893920898438e-04
-3.644227981567382812e-04
-3.275871276855468750e-04
-3.125667572021484375e-04
-3.402233123779296875e-04
-3.761053085327148438e-04
-3.699064254760742188e-04
-3.862380981445312500e-04
-3.098249435424804688e-04
-2.961158752441406250e-04
-3.404617309570312500e-04
-3.205537796020507812e-04
-3.278255462646484375e-04
-3.067255020141601562e-04
-3.062486648559570312e-04
-2.838373184204101562e-04
-3.089904785156250000e-04
-3.091096878051757812e-04
-2.866983413696289062e-04
-3.771781921386718750e-04
-3.044605255126953125e-04
-3.647804260253906250e-04
-3.294944763183593750e-04
-3.410577774047851562e-04
-3.381967544555664062e-04
-3.674030303955078125e-04
-3.076791763305664062e-04
-3.042221069335937500e-04
-3.337860107421875000e-04
-3.005266189575195312e-04
-2.813339233398437500e-04
-3.272294998168945312e-04
-2.802610397338867188e-04
-3.042221069335937500e-04
-3.468990325927734375e-04
-2.732276916503906250e-04
-3.354549407958984375e-04
-2.405643463134765625e-04
-2.751350402832031250e-04
