0.000000000000000000e+00
0.000000000000000000e+00
0.000000000000000000e+00
0.000000000000000000e+00
0.000000000000000000e+00
0.000000000000000000e+00
0.000000000000000000e+00
0.000000000000000000e+00
0.000000000000000000e+00
0.000000000000000000e+00
0.000000000000000000e+00
0.000000000000000000e+00
0.000000000000000000e+00
0.000000000000000000e+00
0.000000000000000000e+00
0.000000000000000000e+00
0.000000000000000000e+00
0.000000000000000000e+00
0.000000000000000000e+00
0.000000000000000000e+00
0.000000000000000000e+00
0.000000000000000000e+00
0.000000000000000000e+00
0.000000000000000000e+00
0.000000000000000000e+00
0.000000000000000000e+00
0.000000000000000000e+00
0.000000000000000000e+00
0.000000000000000000e+00
0.000000000000000000e+00
0.000000000000000000e+00
0.000000000000000000e+00
0.000000000000000000e+00
0.000000000000000000e+00
0.000000000000000000e+00
0.000000000000000000e+00
0.000000000000000000e+00
0.000000000000000000e+00
0.000000000000000000e+00
0.000000000000000000e+00
0.000000000000000000e+00
0.000000000000000000e+00
0.000000000000000000e+00
0.000000000000000000e+00
0.000000000000000000e+00
0.000000000000000000e+00
0.000000000000000000e+00
0.000000000000000000e+00
0.000000000000000000e+00
0.000000000000000000e+00
0.000000000000000000e+00
0.000000000000000000e+00
0.000000000000000000e+00
0.000000000000000000e+00
0.000000000000000000e+00
0.000000000000000000e+00
0.000000000000000000e+00
0.000000000000000000e+00
0.000000000000000000e+00
0.000000000000000000e+00
0.000000000000000000e+00
0.000000000000000000e+00
0.000000000000000000e+00
0.000000000000000000e+00
0.000000000000000000e+00
0.000000000000000000e+00
0.000000000000000000e+00
0.000000000000000000e+00
0.000000000000000000e+00
0.000000000000000000e+00
0.000000000000000000e+00
0.000000000000000000e+00
0.000000000000000000e+00
0.000000000000000000e+00
0.000000000000000000e+00
0.000000000000000000e+00
0.000000000000000000e+00
0.000000000000000000e+00
0.000000000000000000e+00
0.000000000000000000e+00
0.000000000000000000e+00
0.000000000000000000e+00
0.000000000000000000e+00
0.000000000000000000e+00
0.000000000000000000e+00
0.000000000000000000e+00
0.000000000000000000e+00
0.000000000000000000e+00
0.000000000000000000e+00
0.000000000000000000e+00
0.000000000000000000e+00
0.000000000000000000e+00
0.000000000000000000e+00
0.000000000000000000e+00
0.000000000000000000e+00
0.000000000000000000e+00
0.000000000000000000e+00
0.000000000000000000e+00
0.000000000000000000e+00
0.000000000000000000e+00
0.000000000000000000e+00
0.000000000000000000e+00
0.000000000000000000e+00
0.000000000000000000e+00
0.000000000000000000e+00
0.000000000000000000e+00
0.000000000000000000e+00
0.000000000000000000e+00
0.000000000000000000e+00
0.000000000000000000e+00
0.000000000000000000e+00
0.000000000000000000e+00
0.000000000000000000e+00
0.000000000000000000e+00
0.000000000000000000e+00
0.000000000000000000e+00
0.000000000000000000e+00
0.000000000000000000e+00
0.000000000000000000e+00
0.000000000000000000e+00
0.000000000000000000e+00
0.000000000000000000e+00
0.000000000000000000e+00
0.000000000000000000e+00
0.000000000000000000e+00
0.000000000000000000e+00
0.000000000000000000e+00
0.000000000000000000e+00
0.000000000000000000e+00
0.000000000000000000e+00
0.000000000000000000e+00
0.000000000000000000e+00
0.000000000000000000e+00
0.000000000000000000e+00
0.000000000000000000e+00
0.000000000000000000e+00
0.000000000000000000e+00
0.000000000000000000e+00
0.000000000000000000e+00
0.000000000000000000e+00
0.000000000000000000e+00
0.000000000000000000e+00
0.000000000000000000e+00
0.000000000000000000e+00
0.000000000000000000e+00
0.000000000000000000e+00
0.000000000000000000e+00
0.000000000000000000e+00
0.000000000000000000e+00
0.000000000000000000e+00
0.000000000000000000e+00
0.000000000000000000e+00
0.000000000000000000e+00
0.000000000000000000e+00
0.000000000000000000e+00
0.000000000000000000e+00
0.000000000000000000e+00
0.000000000000000000e+00
0.000000000000000000e+00
0.000000000000000000e+00
0.000000000000000000e+00
0.000000000000000000e+00
0.000000000000000000e+00
0.000000000000000000e+00
0.000000000000000000e+00
0.000000000000000000e+00
0.000000000000000000e+00
0.000000000000000000e+00
0.000000000000000000e+00
0.000000000000000000e+00
0.000000000000000000e+00
0.000000000000000000e+00
0.000000000000000000e+00
0.000000000000000000e+00
0.000000000000000000e+00
0.000000000000000000e+00
0.000000000000000000e+00
0.000000000000000000e+00
0.000000000000000000e+00
0.000000000000000000e+00
0.000000000000000000e+00
0.000000000000000000e+00
0.000000000000000000e+00
0.000000000000000000e+00
0.000000000000000000e+00
0.000000000000000000e+00
0.000000000000000000e+00
0.000000000000000000e+00
0.000000000000000000e+00
0.000000000000000000e+00
0.000000000000000000e+00
0.000000000000000000e+00
0.000000000000000000e+00
0.000000000000000000e+00
0.000000000000000000e+00
0.000000000000000000e+00
0.000000000000000000e+00
0.000000000000000000e+00
0.000000000000000000e+00
0.000000000000000000e+00
0.000000000000000000e+00
0.000000000000000000e+00
0.000000000000000000e+00
0.000000000000000000e+00
0.000000000000000000e+00
0.000000000000000000e+00
0.000000000000000000e+00
0.000000000000000000e+00
0.000000000000000000e+00
0.000000000000000000e+00
0.000000000000000000e+00
0.000000000000000000e+00
0.000000000000000000e+00
0.000000000000000000e+00
0.000000000000000000e+00
0.000000000000000000e+00
0.000000000000000000e+00
0.000000000000000000e+00
0.000000000000000000e+00
0.000000000000000000e+00
0.000000000000000000e+00
0.000000000000000000e+00
0.000000000000000000e+00
0.000000000000000000e+00
0.000000000000000000e+00
0.000000000000000000e+00
0.000000000000000000e+00
0.000000000000000000e+00
0.000000000000000000e+00
0.000000000000000000e+00
0.000000000000000000e+00
0.000000000000000000e+00
0.000000000000000000e+00
0.000000000000000000e+00
0.000000000000000000e+00
0.000000000000000000e+00
0.000000000000000000e+00
0.000000000000000000e+00
0.000000000000000000e+00
0.000000000000000000e+00
0.000000000000000000e+00
0.000000000000000000e+00
0.000000000000000000e+00
0.000000000000000000e+00
0.000000000000000000e+00
0.000000000000000000e+00
0.000000000000000000e+00
0.000000000000000000e+00
0.000000000000000000e+00
0.000000000000000000e+00
0.000000000000000000e+00
0.000000000000000000e+00
0.000000000000000000e+00
1.192092895507812500e-07
-1.192092895507812500e-07
1.192092895507812500e-07
-1.192092895507812500e-07
2.384185791015625000e-07
-3.576278686523437500e-07
4.768371582031250000e-07
-8.344650268554687500e-07
3.933906555175781250e-06
1.394748687744140625e-05
1.978874206542968750e-05
2.276897430419921875e-05
2.658367156982421875e-05
3.325939178466796875e-05
3.898143768310546875e-05
4.208087921142578125e-05
4.804134368896484375e-05
4.875659942626953125e-05
5.090236663818359375e-05
6.365776062011718750e-05
6.544589996337890625e-05
6.842613220214843750e-05
8.022785186767578125e-05
8.392333984375000000e-05
8.571147918701171875e-05
8.964538574218750000e-05
9.191036224365234375e-05
1.018047332763671875e-04
9.632110595703125000e-05
9.822845458984375000e-05
1.059770584106445312e-04
1.071691513061523438e-04
1.164674758911132812e-04
1.168251037597656250e-04
1.226663589477539062e-04
1.302957534790039062e-04
1.364946365356445312e-04
1.472234725952148438e-04
1.473426818847656250e-04
1.361370086669921875e-04
1.475811004638671875e-04
1.521110534667968750e-04
1.367330551147460938e-04
1.626014709472656250e-04
1.780986785888671875e-04
1.746416091918945312e-04
1.788139343261718750e-04
1.971721649169921875e-04
1.853704452514648438e-04
1.897811889648437500e-04
2.046823501586914062e-04
1.986026763916015625e-04
1.862049102783203125e-04
1.894235610961914062e-04
2.316236495971679688e-04
2.318620681762695312e-04
2.237558364868164062e-04
2.518892288208007812e-04
2.421140670776367188e-04
2.511739730834960938e-04
2.543926239013671875e-04
2.552270889282226562e-04
2.406835556030273438e-04
2.597570419311523438e-04
2.771615982055664062e-04
2.806186676025390625e-04
3.007650375366210938e-04
2.726316452026367188e-04
2.762079238891601562e-04
3.021955490112304688e-04
3.132820129394531250e-04
2.973079681396484375e-04
3.030300140380859375e-04
3.024339675903320312e-04
3.242492675781250000e-04
3.145933151245117188e-04
3.298521041870117188e-04
3.409385681152343750e-04
3.451108932495117188e-04
3.412961959838867188e-04
3.362894058227539062e-04
3.266334533691406250e-04
3.548860549926757812e-04
3.509521484375000000e-04
3.190040588378906250e-04
3.470182418823242188e-04
3.705024719238281250e-04
3.668069839477539062e-04
3.424882888793945312e-04
3.513097763061523438e-04
3.310441970825195312e-04
3.410577774047851562e-04
3.573894500732421875e-04
3.856420516967773438e-04
3.740787506103515625e-04
3.991127014160156250e-04
3.647804260253906250e-04
3.556013107299804688e-04
3.635883331298828125e-04
3.671646118164062500e-04
4.128217697143554688e-04
3.603696823120117188e-04
3.759860992431640625e-04
3.638267517089843750e-04
3.691911697387695312e-04
3.609657287597656250e-04
3.765821456909179688e-04
3.689527511596679688e-04
3.678798675537109375e-04
3.544092178344726562e-04
3.395080566406250000e-04
3.080368041992187500e-04
3.823041915893554688e-04
3.792047500610351562e-04
3.622770309448242188e-04
3.458261489868164062e-04
3.340244293212890625e-04
3.131628036499023438e-04
2.851486206054687500e-04
3.460645675659179688e-04
3.654956817626953125e-04
3.755092620849609375e-04
3.303289413452148438e-04
3.418922424316406250e-04
3.836154937744140625e-04
3.651380538940429688e-04
3.577470779418945312e-04
4.125833511352539062e-04
4.091262817382812500e-04
4.229545593261718750e-04
3.916025161743164062e-04
3.654956817626953125e-04
3.633499145507812500e-04
3.769397735595703125e-04
3.658533096313476562e-04
3.437995910644531250e-04
3.672838211059570312e-04
3.122091293334960938e-04
3.138780593872070312e-04
3.229379653930664062e-04
2.831220626831054688e-04
3.292560577392578125e-04
3.786087036132812500e-04
3.836154937744140625e-04
3.770589828491210938e-04
3.317594528198242188e-04
3.783702850341796875e-04
3.615617752075195312e-04
3.732442855834960938e-04
3.876686096191406250e-04
3.913640975952148438e-04
4.327297210693359375e-04
4.049539566040039062e-04
4.169940948486328125e-04
4.209280014038085938e-04
3.528594970703125000e-04
3.889799118041992188e-04
4.094839096069335938e-04
3.522634506225585938e-04
3.530979156494140625e-04
3.610849380493164062e-04
3.445148468017578125e-04
3.297328948974609375e-04
3.031492233276367188e-04
3.325939178466796875e-04
2.876520156860351562e-04
2.940893173217773438e-04
3.368854522705078125e-04
3.464221954345703125e-04
3.080368041992187500e-04
2.901554107666015625e-04
3.256797790527343750e-04
3.457069396972656250e-04
4.242658615112304688e-04
3.657341003417968750e-04
4.081726074218750000e-04
3.743171691894531250e-04
3.550052642822265625e-04
3.497600555419921875e-04
3.656148910522460938e-04
4.224777221679687500e-04
3.621578216552734375e-04
3.601312637329101562e-04
3.192424774169921875e-04
3.123283386230468750e-04
3.397464752197265625e-04
3.015995025634765625e-04
3.197193145751953125e-04
3.204345703125000000e-04
3.161430358886718750e-04
3.324747085571289062e-04
3.447532653808593750e-04
2.706050872802734375e-04
2.827644348144531250e-04
3.219842910766601562e-04
3.402233123779296875e-04
3.645420074462890625e-04
4.032850265502929688e-04
3.998279571533203125e-04
3.691911697387695312e-04
3.682374954223632812e-04
3.921985626220703125e-04
4.029273986816406250e-04
3.569126129150390625e-04
3.844499588012695312e-04
4.048347473144531250e-04
3.842115402221679688e-04
3.210306167602539062e-04
2.483129501342773438e-04
3.021955490112304688e-04
3.080368041992187500e-04
2.796649932861328125e-04
3.046989440917968750e-04
2.735853195190429688e-04
2.542734146118164062e-04
2.511739730834960938e-04
2.685785293579101562e-04
3.132820129394531250e-04
2.731084823608398438e-04
2.846717834472656250e-04
4.062652587890625000e-04
3.230571746826171875e-04
3.062486648559570312e-04
3.287792205810546875e-04
3.784894943237304688e-04
3.958940505981445312e-04
3.185272216796875000e-04
4.024505615234375000e-04
4.132986068725585938e-04
3.169775009155273438e-04
3.620386123657226562e-04
3.737211227416992188e-04
3.424882888793945312e-04
2.757310867309570312e-04
2.828836441040039062e-04
3.802776336669921875e-04
2.696514129638671875e-04
2.791881561279296875e-04
3.178119659423828125e-04
2.800226211547851562e-04
2.865791320800781250e-04
2.572536468505859375e-04
3.730058670043945312e-04
3.371238708496093750e-04
2.654790878295898438e-04
3.163814544677734375e-04
3.596544265747070312e-04
2.692937850952148438e-04
2.874135971069335938e-04
3.571510314941406250e-04
3.870725631713867188e-04
3.104209899902343750e-04
2.527236938476562500e-04
4.091262817382812500e-04
3.427267074584960938e-04
2.930164337158203125e-04
3.138780593872070312e-04
3.339052200317382812e-04
3.619194030761718750e-04
2.627372741699218750e-04
3.687143325805664062e-04
3.626346588134765625e-04
2.582073211669921875e-04
3.277063369750976562e-04
3.198385238647460938e-04
3.048181533813476562e-04
2.756118774414062500e-04
3.014802932739257812e-04
3.377199172973632812e-04
2.659559249877929688e-04
2.499818801879882812e-04
3.401041030883789062e-04
3.576278686523437500e-04
3.077983856201171875e-04
3.038644790649414062e-04
3.288984298706054688e-04
3.356933593750000000e-04
2.851486206054687500e-04
3.080368041992187500e-04
3.573894500732421875e-04
2.651214599609375000e-04
2.924203872680664062e-04
2.838373184204101562e-04
3.011226654052734375e-04
2.688169479370117188e-04
2.135038375854492188e-04
3.728866577148437500e-04
2.704858779907226562e-04
2.797842025756835938e-04
3.253221511840820312e-04
2.928972244262695312e-04
2.801418304443359375e-04
1.760721206665039062e-04
2.716779708862304688e-04
2.694129943847656250e-04
2.583265304565429688e-04
2.861022949218750000e-04
3.267526626586914062e-04
3.243684768676757812e-04
3.163814544677734375e-04
3.517866134643554688e-04
3.260374069213867188e-04
2.807378768920898438e-04
2.588033676147460938e-04
3.552436828613281250e-04
2.770423889160156250e-04
2.778768539428710938e-04
2.923011779785156250e-04
2.743005752563476562e-04
2.857446670532226562e-04
2.466440200805664062e-04
2.909898757934570312e-04
3.235340118408203125e-04
2.223253250122070312e-04
2.684593200683593750e-04
2.902746200561523438e-04
2.808570861816406250e-04
2.512931823730468750e-04
2.701282501220703125e-04
3.919601440429687500e-04
2.923011779785156250e-04
3.234148025512695312e-04
3.081560134887695312e-04
3.570318222045898438e-04
3.235340118408203125e-04
2.980232238769531250e-04
2.768039703369140625e-04
2.928972244262695312e-04
3.147125244140625000e-04
2.875328063964843750e-04
3.514289855957031250e-04
2.906322479248046875e-04
2.664327621459960938e-04
2.713203430175781250e-04
2.619028091430664062e-04
2.651214599609375000e-04
2.391338348388671875e-04
2.406835556030273438e-04
2.235174179077148438e-04
2.601146697998046875e-04
2.919435501098632812e-04
2.808570861816406250e-04
2.785921096801757812e-04
2.998113632202148438e-04
3.100633621215820312e-04
2.424716949462890625e-04
2.797842025756835938e-04
2.849102020263671875e-04
2.375841140747070312e-04
2.689361572265625000e-04
2.959966659545898438e-04
3.188848495483398438e-04
2.973079681396484375e-04
2.520084381103515625e-04
2.970695495605468750e-04
2.542734146118164062e-04
2.743005752563476562e-04
2.110004425048828125e-04
2.628564834594726562e-04
2.478361129760742188e-04
2.422332763671875000e-04
2.572536468505859375e-04
2.075433731079101562e-04
2.505779266357421875e-04
1.757144927978515625e-04
2.675056457519531250e-04
3.002882003784179688e-04
3.256797790527343750e-04
2.758502960205078125e-04
2.592802047729492188e-04
2.537965774536132812e-04
2.498626708984375000e-04
2.827644348144531250e-04
2.497434616088867188e-04
2.363920211791992188e-04
2.481937408447265625e-04
2.640485763549804688e-04
2.684593200683593750e-04
2.566576004028320312e-04
2.304315567016601562e-04
2.334117889404296875e-04
2.300739288330078125e-04
2.688169479370117188e-04
2.145767211914062500e-04
2.626180648803710938e-04
2.366304397583007812e-04
2.497434616088867188e-04
2.267360687255859375e-04
2.449750900268554688e-04
3.026723861694335938e-04
1.877546310424804688e-04
2.430677413940429688e-04
2.014636993408203125e-04
2.592802047729492188e-04
2.031326293945312500e-04
2.065896987915039062e-04
2.093315124511718750e-04
2.113580703735351562e-04
2.565383911132812500e-04
2.095699310302734375e-04
3.019571304321289062e-04
2.213716506958007812e-04
2.311468124389648438e-04
2.803802490234375000e-04
2.260208129882812500e-04
2.213716506958007812e-04
2.465248107910156250e-04
2.262592315673828125e-04
2.282857894897460938e-04
1.906156539916992188e-04
2.173185348510742188e-04
1.889467239379882812e-04
1.873970031738281250e-04
2.511739730834960938e-04
2.049207687377929688e-04
1.969337463378906250e-04
1.530647277832031250e-04
1.947879791259765625e-04
1.802444458007812500e-04
2.042055130004882812e-04
1.838207244873046875e-04
2.229213714599609375e-04
2.110004425048828125e-04
1.534223556518554688e-04
2.365112304687500000e-04
1.907348632812500000e-04
2.084970474243164062e-04
2.027750015258789062e-04
2.169609069824218750e-04
2.268552780151367188e-04
1.952648162841796875e-04
2.150535583496093750e-04
1.920461654663085938e-04
2.275705337524414062e-04
2.477169036865234375e-04
1.940727233886718750e-04
1.887083053588867188e-04
1.788139343261718750e-04
1.996755599975585938e-04
1.974105834960937500e-04
2.050399780273437500e-04
2.208948135375976562e-04
1.856088638305664062e-04
1.652240753173828125e-04
2.187490463256835938e-04
2.455711364746093750e-04
2.022981643676757812e-04
2.295970916748046875e-04
2.400875091552734375e-04
2.347230911254882812e-04
2.380609512329101562e-04
2.212524414062500000e-04
2.517700195312500000e-04
2.094507217407226562e-04
2.332925796508789062e-04
2.063512802124023438e-04
2.419948577880859375e-04
2.307891845703125000e-04
1.984834671020507812e-04
2.127885818481445312e-04
2.363920211791992188e-04
2.282857894897460938e-04
1.896619796752929688e-04
2.136230468750000000e-04
2.031326293945312500e-04
2.406835556030273438e-04
2.429485321044921875e-04
2.051591873168945312e-04
1.987218856811523438e-04
2.654790878295898438e-04
2.263784408569335938e-04
2.090930938720703125e-04
2.113580703735351562e-04
2.057552337646484375e-04
1.534223556518554688e-04
2.408027648925781250e-04
2.533197402954101562e-04
2.225637435913085938e-04
2.273321151733398438e-04
2.251863479614257812e-04
2.691745758056640625e-04
1.946687698364257812e-04
2.374649047851562500e-04
2.309083938598632812e-04
2.430677413940429688e-04
2.397298812866210938e-04
2.189874649047851562e-04
2.142190933227539062e-04
2.424716949462890625e-04
2.399682998657226562e-04
1.821517944335937500e-04
2.077817916870117188e-04
1.829862594604492188e-04
2.028942108154296875e-04
2.193450927734375000e-04
2.018213272094726562e-04
2.082586288452148438e-04
2.043247222900390625e-04
1.994371414184570312e-04
2.530813217163085938e-04
2.100467681884765625e-04
2.192258834838867188e-04
1.651048660278320312e-04
1.616477966308593750e-04
2.058744430541992188e-04
1.481771469116210938e-04
1.883506774902343750e-04
1.826286315917968750e-04
2.235174179077148438e-04
2.083778381347656250e-04
1.801252365112304688e-04
1.751184463500976562e-04
2.112388610839843750e-04
2.193450927734375000e-04
2.057552337646484375e-04
1.839399337768554688e-04
1.868009567260742188e-04
2.204179763793945312e-04
2.347230911254882812e-04
1.838207244873046875e-04
1.810789108276367188e-04
2.291202545166015625e-04
1.685619354248046875e-04
2.005100250244140625e-04
1.730918884277343750e-04
1.639127731323242188e-04
1.713037490844726562e-04
2.158880233764648438e-04
1.759529113769531250e-04
1.909732818603515625e-04
1.714229583740234375e-04
1.745223999023437500e-04
1.899003982543945312e-04
2.001523971557617188e-04
2.467632293701171875e-04
2.003908157348632812e-04
2.303123474121093750e-04
1.999139785766601562e-04
1.552104949951171875e-04
1.417398452758789062e-04
2.175569534301757812e-04
2.083778381347656250e-04
1.908540725708007812e-04
2.328157424926757812e-04
2.471208572387695312e-04
2.222061157226562500e-04
2.404451370239257812e-04
2.409219741821289062e-04
2.226829528808593750e-04
1.871585845947265625e-04
2.398490905761718750e-04
2.794265747070312500e-04
2.983808517456054688e-04
2.379417419433593750e-04
1.798868179321289062e-04
2.565383911132812500e-04
1.971721649169921875e-04
2.107620239257812500e-04
1.695156097412109375e-04
2.315044403076171875e-04
2.381801605224609375e-04
2.269744873046875000e-04
2.655982971191406250e-04
2.145767211914062500e-04
2.537965774536132812e-04
1.646280288696289062e-04
2.194643020629882812e-04
2.115964889526367188e-04
1.807212829589843750e-04
2.115964889526367188e-04
1.844167709350585938e-04
2.050399780273437500e-04
1.935958862304687500e-04
2.086162567138671875e-04
2.206563949584960938e-04
1.717805862426757812e-04
2.104043960571289062e-04
2.065896987915039062e-04
2.094507217407226562e-04
2.028942108154296875e-04
2.200603485107421875e-04
2.374649047851562500e-04
1.910924911499023438e-04
2.168416976928710938e-04
2.177953720092773438e-04
1.913309097290039062e-04
2.365112304687500000e-04
2.325773239135742188e-04
2.368688583374023438e-04
2.341270446777343750e-04
2.049207687377929688e-04
1.835823059082031250e-04
1.838207244873046875e-04
2.180337905883789062e-04
1.839399337768554688e-04
1.871585845947265625e-04
2.319812774658203125e-04
2.049207687377929688e-04
1.983642578125000000e-04
2.316236495971679688e-04
2.125501632690429688e-04
1.715421676635742188e-04
2.270936965942382812e-04
2.008676528930664062e-04
2.249479293823242188e-04
2.501010894775390625e-04
2.368688583374023438e-04
2.075433731079101562e-04
2.101659774780273438e-04
1.826286315917968750e-04
2.396106719970703125e-04
1.924037933349609375e-04
1.604557037353515625e-04
1.972913742065429688e-04
1.662969589233398438e-04
1.555681228637695312e-04
1.584291458129882812e-04
1.610517501831054688e-04
1.547336578369140625e-04
2.273321151733398438e-04
2.124309539794921875e-04
1.447200775146484375e-04
1.595020294189453125e-04
2.336502075195312500e-04
1.919269561767578125e-04
2.090930938720703125e-04
2.239942550659179688e-04
1.778602600097656250e-04
1.698732376098632812e-04
2.269744873046875000e-04
2.396106719970703125e-04
1.587867736816406250e-04
1.308917999267578125e-04
1.307725906372070312e-04
1.789331436157226562e-04
1.626014709472656250e-04
1.758337020874023438e-04
1.877546310424804688e-04
1.485347747802734375e-04
1.993179321289062500e-04
1.881122589111328125e-04
1.603364944458007812e-04
1.354217529296875000e-04
1.486539840698242188e-04
2.256631851196289062e-04
2.061128616333007812e-04
1.969337463378906250e-04
1.621246337890625000e-04
2.201795578002929688e-04
4.731416702270507812e-04
4.307031631469726562e-04
4.723072052001953125e-04
1.894235610961914062e-04
3.439188003540039062e-04
5.644559860229492188e-04
5.124807357788085938e-04
4.025697708129882812e-04
1.499652862548828125e-04
2.096891403198242188e-04
1.909732818603515625e-04
2.388954162597656250e-04
1.569986343383789062e-04
1.585483551025390625e-04
1.355409622192382812e-04
1.965761184692382812e-04
2.033710479736328125e-04
1.578330993652343750e-04
1.252889633178710938e-04
1.277923583984375000e-04
1.928806304931640625e-04
1.800060272216796875e-04
1.832246780395507812e-04
1.820325851440429688e-04
1.751184463500976562e-04
2.033710479736328125e-04
2.075433731079101562e-04
2.200603485107421875e-04
1.364946365356445312e-04
1.430511474609375000e-04
2.202987670898437500e-04
1.677274703979492188e-04
1.438856124877929688e-04
1.499652862548828125e-04
1.491308212280273438e-04
1.935958862304687500e-04
1.161098480224609375e-04
1.534223556518554688e-04
1.274347305297851562e-04
1.120567321777343750e-04
1.623630523681640625e-04
2.449750900268554688e-04
2.312660217285156250e-04
1.881122589111328125e-04
1.859664916992187500e-04
1.994371414184570312e-04
2.235174179077148438e-04
1.590251922607421875e-04
1.654624938964843750e-04
1.524686813354492188e-04
1.544952392578125000e-04
2.025365829467773438e-04
1.822710037231445312e-04
1.720190048217773438e-04
1.875162124633789062e-04
1.611709594726562500e-04
1.767873764038085938e-04
1.654624938964843750e-04
1.543760299682617188e-04
1.347064971923828125e-04
1.466274261474609375e-04
2.129077911376953125e-04
1.754760742187500000e-04
1.689195632934570312e-04
1.571178436279296875e-04
1.730918884277343750e-04
1.877546310424804688e-04
1.856088638305664062e-04
1.585483551025390625e-04
1.547336578369140625e-04
1.438856124877929688e-04
1.677274703979492188e-04
1.968145370483398438e-04
1.260042190551757812e-04
1.525878906250000000e-04
1.585483551025390625e-04
1.637935638427734375e-04
1.777410507202148438e-04
1.851320266723632812e-04
9.226799011230468750e-05
1.075267791748046875e-04
1.108646392822265625e-04
1.485347747802734375e-04
1.349449157714843750e-04
1.388788223266601562e-04
1.471042633056640625e-04
1.357793807983398438e-04
1.477003097534179688e-04
1.575946807861328125e-04
1.642704010009765625e-04
1.372098922729492188e-04
1.637935638427734375e-04
1.564025878906250000e-04
1.735687255859375000e-04
1.521110534667968750e-04
1.424551010131835938e-04
2.084970474243164062e-04
1.648664474487304688e-04
1.999139785766601562e-04
1.422166824340820312e-04
1.008510589599609375e-04
1.409053802490234375e-04
1.367330551147460938e-04
1.349449157714843750e-04
7.021427154541015625e-05
1.095533370971679688e-04
1.093149185180664062e-04
1.071691513061523438e-04
1.161098480224609375e-04
1.229047775268554688e-04
1.288652420043945312e-04
1.069307327270507812e-04
1.530647277832031250e-04
1.037120819091796875e-04
9.000301361083984375e-05
1.225471496582031250e-04
9.405612945556640625e-05
1.169443130493164062e-04
7.045269012451171875e-05
1.162290573120117188e-04
9.965896606445312500e-05
1.053810119628906250e-04
1.515150070190429688e-04
1.106262207031250000e-04
9.548664093017578125e-05
1.380443572998046875e-04
1.411437988281250000e-04
8.952617645263671875e-05
1.165866851806640625e-04
1.001358032226562500e-04
9.036064147949218750e-05
9.775161743164062500e-05
1.262426376342773438e-04
6.604194641113281250e-05
7.700920104980468750e-05
7.295608520507812500e-05
8.642673492431640625e-05
1.274347305297851562e-04
6.306171417236328125e-05
1.209974288940429688e-04
1.518726348876953125e-04
1.051425933837890625e-04
1.209974288940429688e-04
1.631975173950195312e-04
1.569986343383789062e-04
1.388788223266601562e-04
1.453161239624023438e-04
1.558065414428710938e-04
1.040697097778320312e-04
1.227855682373046875e-04
1.475811004638671875e-04
1.261234283447265625e-04
1.585483551025390625e-04
1.542568206787109375e-04
1.534223556518554688e-04
1.120567321777343750e-04
1.318454742431640625e-04
1.484155654907226562e-04
1.282691955566406250e-04
1.286268234252929688e-04
1.295804977416992188e-04
9.143352508544921875e-05
9.512901306152343750e-05
1.657009124755859375e-04
9.226799011230468750e-05
9.906291961669921875e-05
1.429319381713867188e-04
7.927417755126953125e-05
6.580352783203125000e-05
4.982948303222656250e-05
3.576278686523437500e-05
5.340576171875000000e-05
1.752376556396484375e-05
5.865097045898437500e-05
1.907348632812500000e-06
5.817413330078125000e-05
1.118183135986328125e-04
7.593631744384765625e-05
7.712841033935546875e-05
7.462501525878906250e-05
1.064538955688476562e-04
8.952617645263671875e-05
1.159906387329101562e-04
1.089572906494140625e-04
4.935264587402343750e-05
5.602836608886718750e-05
8.666515350341796875e-05
8.428096771240234375e-05
1.031160354614257812e-04
9.059906005859375000e-05
1.164674758911132812e-04
8.773803710937500000e-05
8.940696716308593750e-05
7.677078247070312500e-05
7.510185241699218750e-05
1.149177551269531250e-04
7.796287536621093750e-05
3.182888031005859375e-05
4.136562347412109375e-05
1.220703125000000000e-04
7.033348083496093750e-05
-2.264976501464843750e-06
2.336502075195312500e-05
6.377696990966796875e-05
4.076957702636718750e-05
4.875659942626953125e-05
5.912780761718750000e-05
7.081031799316406250e-05
3.838539123535156250e-05
9.000301361083984375e-05
8.964538574218750000e-05
1.013278961181640625e-05
3.957748413085937500e-05
5.006790161132812500e-05
2.467632293701171875e-05
8.821487426757812500e-06
1.084804534912109375e-05
1.859664916992187500e-05
3.576278686523437500e-05
4.994869232177734375e-05
2.419948577880859375e-05
2.300739288330078125e-05
4.494190216064453125e-05
4.577636718750000000e-05
7.700920104980468750e-05
6.210803985595703125e-05
7.295608520507812500e-05
9.143352508544921875e-05
9.858608245849609375e-05
7.236003875732421875e-05
2.932548522949218750e-05
3.755092620849609375e-05
5.149841308593750000e-05
5.984306335449218750e-05
4.780292510986328125e-05
1.019239425659179688e-04
8.475780487060546875e-05
8.201599121093750000e-05
5.424022674560546875e-05
5.137920379638671875e-05
9.775161743164062500e-05
8.082389831542968750e-05
8.773803710937500000e-05
1.183748245239257812e-04
9.870529174804687500e-05
6.639957427978515625e-05
1.196861267089843750e-04
1.006126403808593750e-04
1.006126403808593750e-04
6.103515625000000000e-05
7.677078247070312500e-05
1.273155212402343750e-04
6.985664367675781250e-05
7.128715515136718750e-05
6.353855133056640625e-05
6.997585296630859375e-05
6.735324859619140625e-05
-2.825260162353515625e-05
-1.001358032226562500e-05
1.966953277587890625e-05
-1.525878906250000000e-05
5.388259887695312500e-05
6.341934204101562500e-05
5.948543548583984375e-05
5.519390106201171875e-05
6.520748138427734375e-05
1.028776168823242188e-04
4.458427429199218750e-05
5.125999450683593750e-05
6.651878356933593750e-05
6.794929504394531250e-05
9.036064147949218750e-05
9.632110595703125000e-05
1.156330108642578125e-04
8.797645568847656250e-05
7.116794586181640625e-05
7.259845733642578125e-05
9.548664093017578125e-05
7.796287536621093750e-05
5.865097045898437500e-05
9.942054748535156250e-05
9.322166442871093750e-05
7.843971252441406250e-05
3.230571746826171875e-05
7.271766662597656250e-05
1.051425933837890625e-04
3.063678741455078125e-05
8.738040924072265625e-05
8.165836334228515625e-05
6.747245788574218750e-05
1.136064529418945312e-04
4.541873931884765625e-05
8.606910705566406250e-05
1.407861709594726562e-04
6.747245788574218750e-05
1.101493835449218750e-04
9.369850158691406250e-05
5.733966827392578125e-05
7.057189941406250000e-05
9.787082672119140625e-05
9.357929229736328125e-05
1.100301742553710938e-04
1.170635223388671875e-04
1.063346862792968750e-04
1.021623611450195312e-04
9.655952453613281250e-05
1.258850097656250000e-04
5.829334259033203125e-05
7.307529449462890625e-05
3.516674041748046875e-05
7.891654968261718750e-05
1.033544540405273438e-04
4.994869232177734375e-05
7.605552673339843750e-05
7.557868957519531250e-05
6.318092346191406250e-05
7.450580596923828125e-05
4.959106445312500000e-05
3.159046173095703125e-05
4.351139068603515625e-05
6.997585296630859375e-05
5.483627319335937500e-05
4.756450653076171875e-05
6.687641143798828125e-05
6.842613220214843750e-05
3.921985626220703125e-05
4.804134368896484375e-05
7.009506225585937500e-05
1.224279403686523438e-04
9.202957153320312500e-05
7.009506225585937500e-05
6.771087646484375000e-05
4.243850708007812500e-05
3.278255462646484375e-05
6.473064422607421875e-05
5.185604095458984375e-05
4.947185516357421875e-05
9.560585021972656250e-05
4.267692565917968750e-05
7.820129394531250000e-05
5.960464477539062500e-05
6.508827209472656250e-05
4.112720489501953125e-05
6.437301635742187500e-05
5.257129669189453125e-05
2.515316009521484375e-05
2.443790435791015625e-05
2.920627593994140625e-05
2.777576446533203125e-05
-1.025199890136718750e-05
5.722045898437500000e-06
2.026557922363281250e-06
-2.861022949218750000e-05
-1.454353332519531250e-05
-1.609325408935546875e-05
-6.985664367675781250e-05
-2.133846282958984375e-05
1.287460327148437500e-05
-1.716613769531250000e-05
-1.895427703857421875e-05
-3.385543823242187500e-05
-3.552436828613281250e-05
-3.254413604736328125e-05
-3.314018249511718750e-05
1.096725463867187500e-05
-3.290176391601562500e-05
7.748603820800781250e-06
3.910064697265625000e-05
-2.503395080566406250e-06
-7.033348083496093750e-06
-4.410743713378906250e-06
-6.914138793945312500e-06
1.072883605957031250e-06
1.466274261474609375e-05
-3.635883331298828125e-05
-3.707408905029296875e-05
1.692771911621093750e-05
2.396106719970703125e-05
1.990795135498046875e-05
-1.192092895507812500e-07
-2.312660217285156250e-05
-3.492832183837890625e-05
-4.506111145019531250e-05
2.408027648925781250e-05
3.194808959960937500e-05
7.390975952148437500e-06
7.629394531250000000e-06
4.816055297851562500e-05
5.698204040527343750e-05
6.353855133056640625e-05
-1.823902130126953125e-05
8.225440979003906250e-06
1.800060272216796875e-05
4.529953002929687500e-06
4.374980926513671875e-05
-2.741813659667968750e-05
1.037120819091796875e-05
4.494190216064453125e-05
3.457069396972656250e-05
2.264976501464843750e-05
3.695487976074218750e-05
7.426738739013671875e-05
5.841255187988281250e-05
5.710124969482421875e-05
-1.549720764160156250e-06
3.552436828613281250e-05
7.045269012451171875e-05
5.543231964111328125e-05
3.552436828613281250e-05
4.851818084716796875e-05
8.702278137207031250e-06
3.170967102050781250e-05
3.445148468017578125e-05
1.025199890136718750e-05
6.842613220214843750e-05
3.349781036376953125e-05
5.841255187988281250e-06
1.823902130126953125e-05
2.050399780273437500e-05
6.437301635742187500e-06
-1.525878906250000000e-05
5.519390106201171875e-05
5.364418029785156250e-06
-4.768371582031250000e-07
2.491474151611328125e-05
2.777576446533203125e-05
4.601478576660156250e-05
5.125999450683593750e-05
4.172325134277343750e-05
1.215934753417968750e-05
3.671646118164062500e-05
1.537799835205078125e-05
3.767013549804687500e-05
1.430511474609375000e-05
1.513957977294921875e-05
3.969669342041015625e-05
3.194808959960937500e-05
1.263618469238281250e-05
8.380413055419921875e-05
8.583068847656250000e-05
8.404254913330078125e-05
6.687641143798828125e-05
6.496906280517578125e-05
5.424022674560546875e-05
3.492832183837890625e-05
1.549720764160156250e-05
-6.318092346191406250e-06
1.287460327148437500e-05
4.768371582031250000e-05
4.923343658447265625e-05
3.814697265625000000e-05
2.253055572509765625e-05
2.968311309814453125e-05
3.242492675781250000e-05
1.645088195800781250e-05
5.066394805908203125e-05
5.054473876953125000e-05
4.887580871582031250e-05
-1.406669616699218750e-05
5.412101745605468750e-05
3.278255462646484375e-05
1.192092895507812500e-06
1.299381256103515625e-05
7.498264312744140625e-05
7.939338684082031250e-05
5.531311035156250000e-05
4.732608795166015625e-05
6.759166717529296875e-05
1.046657562255859375e-04
1.075267791748046875e-04
9.155273437500000000e-05
3.039836883544921875e-05
5.686283111572265625e-05
7.438659667968750000e-05
9.751319885253906250e-05
1.120567321777343750e-05
2.610683441162109375e-05
-1.084804534912109375e-05
2.193450927734375000e-05
3.862380981445312500e-05
-7.390975952148437500e-06
-2.169609069824218750e-05
2.622604370117187500e-06
4.303455352783203125e-05
3.576278686523437500e-06
1.382827758789062500e-05
6.246566772460937500e-05
5.114078521728515625e-05
6.580352783203125000e-05
6.401538848876953125e-05
2.169609069824218750e-05
3.612041473388671875e-05
4.220008850097656250e-05
8.094310760498046875e-05
5.710124969482421875e-05
3.767013549804687500e-05
-1.358985900878906250e-05
-1.585483551025390625e-05
-1.585483551025390625e-05
9.536743164062500000e-07
3.969669342041015625e-05
1.382827758789062500e-05
3.409385681152343750e-05
4.398822784423828125e-05
7.867813110351562500e-06
1.466274261474609375e-05
-4.410743713378906250e-06
-3.576278686523437500e-07
2.288818359375000000e-05
-1.704692840576171875e-05
2.694129943847656250e-05
2.813339233398437500e-05
2.741813659667968750e-06
3.039836883544921875e-05
1.370906829833984375e-05
-1.251697540283203125e-05
2.264976501464843750e-06
-3.218650817871093750e-06
1.525878906250000000e-05
5.662441253662109375e-05
5.519390106201171875e-05
7.927417755126953125e-05
7.605552673339843750e-05
5.674362182617187500e-05
4.947185516357421875e-05
5.149841308593750000e-05
5.841255187988281250e-05
4.434585571289062500e-05
6.568431854248046875e-05
1.764297485351562500e-05
5.245208740234375000e-05
1.680850982666015625e-05
4.255771636962890625e-05
5.483627319335937500e-05
4.255771636962890625e-05
7.295608520507812500e-05
4.041194915771484375e-05
1.072883605957031250e-05
4.482269287109375000e-05
3.671646118164062500e-05
2.157688140869140625e-05
7.390975952148437500e-05
3.075599670410156250e-05
4.518032073974609375e-05
3.015995025634765625e-05
3.147125244140625000e-05
3.647804260253906250e-05
3.170967102050781250e-05
8.451938629150390625e-05
4.208087921142578125e-05
2.145767211914062500e-05
7.152557373046875000e-05
4.506111145019531250e-05
2.348423004150390625e-05
3.695487976074218750e-06
3.075599670410156250e-05
2.503395080566406250e-05
2.813339233398437500e-05
5.602836608886718750e-06
3.659725189208984375e-05
2.276897430419921875e-05
2.813339233398437500e-05
8.702278137207031250e-06
4.959106445312500000e-05
2.682209014892578125e-05
4.851818084716796875e-05
9.608268737792968750e-05
-1.990795135498046875e-05
4.637241363525390625e-05
1.204013824462890625e-05
-1.788139343261718750e-06
-1.418590545654296875e-05
5.841255187988281250e-06
2.026557922363281250e-05
2.253055572509765625e-05
5.948543548583984375e-05
3.850460052490234375e-05
1.311302185058593750e-06
2.169609069824218750e-05
5.888938903808593750e-05
-3.457069396972656250e-06
1.323223114013671875e-05
3.194808959960937500e-05
3.397464752197265625e-05
2.288818359375000000e-05
3.790855407714843750e-05
6.139278411865234375e-05
2.408027648925781250e-05
3.039836883544921875e-05
6.258487701416015625e-05
5.674362182617187500e-05
3.385543823242187500e-05
7.057189941406250000e-05
1.263618469238281250e-05
1.490116119384765625e-05
4.041194915771484375e-05
2.884864807128906250e-05
2.861022949218750000e-05
3.600120544433593750e-05
6.163120269775390625e-05
5.841255187988281250e-06
4.088878631591796875e-05
3.099441528320312500e-05
5.972385406494140625e-05
3.707408905029296875e-05
3.004074096679687500e-05
8.404254913330078125e-05
6.031990051269531250e-05
4.231929779052734375e-05
1.645088195800781250e-05
1.442432403564453125e-05
9.894371032714843750e-06
4.887580871582031250e-06
1.120567321777343750e-05
-3.576278686523437500e-07
1.072883605957031250e-05
9.655952453613281250e-06
5.114078521728515625e-05
7.629394531250000000e-06
5.841255187988281250e-06
4.434585571289062500e-05
-3.457069396972656250e-06
-1.907348632812500000e-05
4.744529724121093750e-05
3.767013549804687500e-05
4.017353057861328125e-05
5.662441253662109375e-05
1.394748687744140625e-05
4.887580871582031250e-05
4.303455352783203125e-05
2.729892730712890625e-05
6.294250488281250000e-05
3.218650817871093750e-05
3.385543823242187500e-05
6.914138793945312500e-05
4.184246063232421875e-05
6.127357482910156250e-05
2.837181091308593750e-05
7.522106170654296875e-05
6.926059722900390625e-05
8.940696716308593750e-06
1.156330108642578125e-05
8.094310760498046875e-05
3.492832183837890625e-05
1.943111419677734375e-05
2.121925354003906250e-05
5.471706390380859375e-05
9.179115295410156250e-05
1.561641693115234375e-05
6.091594696044921875e-05
5.471706390380859375e-05
3.659725189208984375e-05
3.802776336669921875e-05
4.279613494873046875e-05
3.862380981445312500e-05
4.100799560546875000e-05
4.959106445312500000e-05
2.717971801757812500e-05
2.849102020263671875e-05
3.576278686523437500e-05
3.671646118164062500e-05
2.086162567138671875e-05
-1.633167266845703125e-05
-1.990795135498046875e-05
-3.039836883544921875e-05
-3.373622894287109375e-05
-1.418590545654296875e-05
-4.768371582031250000e-06
3.147125244140625000e-05
3.695487976074218750e-05
-1.072883605957031250e-06
4.768371582031250000e-06
2.884864807128906250e-05
2.968311309814453125e-05
1.978874206542968750e-05
4.315376281738281250e-05
5.400180816650390625e-05
2.503395080566406250e-05
3.612041473388671875e-05
4.851818084716796875e-05
5.829334259033203125e-05
4.661083221435546875e-05
3.087520599365234375e-05
5.090236663818359375e-05
4.088878631591796875e-05
1.776218414306640625e-05
3.707408905029296875e-05
8.106231689453125000e-06
6.556510925292968750e-06
4.899501800537109375e-05
4.851818084716796875e-05
2.384185791015625000e-06
3.576278686523437500e-07
-9.536743164062500000e-06
2.133846282958984375e-05
-7.987022399902343750e-06
-1.788139343261718750e-05
-3.302097320556640625e-05
-5.900859832763671875e-05
5.125999450683593750e-06
2.419948577880859375e-05
1.764297485351562500e-05
-1.001358032226562500e-05
2.014636993408203125e-05
1.025199890136718750e-05
1.907348632812500000e-06
5.698204040527343750e-05
1.871585845947265625e-05
-4.529953002929687500e-06
5.102157592773437500e-05
-1.823902130126953125e-05
-8.344650268554687500e-07
6.079673767089843750e-06
3.206729888916015625e-05
4.637241363525390625e-05
4.601478576660156250e-05
5.710124969482421875e-05
4.184246063232421875e-05
2.217292785644531250e-05
4.088878631591796875e-05
2.717971801757812500e-05
4.446506500244140625e-05
2.777576446533203125e-05
-2.110004425048828125e-05
8.702278137207031250e-06
3.290176391601562500e-05
1.215934753417968750e-05
-4.017353057861328125e-05
7.152557373046875000e-07
5.245208740234375000e-06
-3.099441528320312500e-06
3.933906555175781250e-06
3.421306610107421875e-05
4.482269287109375000e-05
5.090236663818359375e-05
9.536743164062500000e-07
3.087520599365234375e-05
1.323223114013671875e-05
-1.478195190429687500e-05
1.430511474609375000e-05
2.264976501464843750e-06
2.419948577880859375e-05
-2.193450927734375000e-05
-5.364418029785156250e-06
-2.312660217285156250e-05
1.668930053710937500e-06
2.765655517578125000e-05
-1.311302185058593750e-06
-3.933906555175781250e-06
3.683567047119140625e-05
1.668930053710937500e-05
-1.430511474609375000e-05
5.412101745605468750e-05
5.960464477539062500e-06
-1.740455627441406250e-05
9.775161743164062500e-06
1.740455627441406250e-05
2.336502075195312500e-05
-8.463859558105468750e-06
1.049041748046875000e-05
5.972385406494140625e-05
-7.390975952148437500e-06
2.217292785644531250e-05
3.945827484130859375e-05
1.847743988037109375e-05
2.861022949218750000e-06
1.049041748046875000e-05
-1.609325408935546875e-05
-1.323223114013671875e-05
3.576278686523437500e-07
-1.895427703857421875e-05
1.800060272216796875e-05
8.702278137207031250e-06
9.894371032714843750e-06
4.208087921142578125e-05
1.764297485351562500e-05
-4.887580871582031250e-06
1.692771911621093750e-05
1.704692840576171875e-05
1.239776611328125000e-05
6.198883056640625000e-06
-3.099441528320312500e-06
2.980232238769531250e-06
5.006790161132812500e-05
-2.968311309814453125e-05
1.871585845947265625e-05
1.442432403564453125e-05
-8.583068847656250000e-06
-7.033348083496093750e-06
2.491474151611328125e-05
9.298324584960937500e-06
1.704692840576171875e-05
4.768371582031250000e-07
-8.463859558105468750e-06
3.743171691894531250e-05
-2.825260162353515625e-05
1.192092895507812500e-06
5.483627319335937500e-06
5.125999450683593750e-06
3.790855407714843750e-05
1.502037048339843750e-05
-7.510185241699218750e-06
-2.884864807128906250e-05
1.788139343261718750e-06
-1.192092895507812500e-07
-4.529953002929687500e-06
2.872943878173828125e-05
-3.802776336669921875e-05
-2.622604370117187500e-05
1.037120819091796875e-05
-2.527236938476562500e-05
-5.435943603515625000e-05
-7.188320159912109375e-05
-6.246566772460937500e-05
-1.764297485351562500e-05
-4.673004150390625000e-05
-2.717971801757812500e-05
-5.054473876953125000e-05
-4.708766937255859375e-05
-4.231929779052734375e-05
-4.065036773681640625e-05
2.062320709228515625e-05
8.702278137207031250e-06
-1.180171966552734375e-05
-4.696846008300781250e-05
-1.740455627441406250e-05
2.348423004150390625e-05
1.645088195800781250e-05
-1.072883605957031250e-06
6.675720214843750000e-06
1.323223114013671875e-05
3.099441528320312500e-06
3.468990325927734375e-05
5.841255187988281250e-06
1.537799835205078125e-05
5.722045898437500000e-06
-2.515316009521484375e-05
2.038478851318359375e-05
3.576278686523437500e-05
1.490116119384765625e-05
-1.227855682373046875e-05
8.344650268554687500e-07
-1.430511474609375000e-06
2.562999725341796875e-05
-3.385543823242187500e-05
-3.802776336669921875e-05
-6.711483001708984375e-05
-5.614757537841796875e-05
-5.590915679931640625e-05
-2.145767211914062500e-05
1.120567321777343750e-05
4.291534423828125000e-06
1.895427703857421875e-05
1.025199890136718750e-05
-2.145767211914062500e-05
2.346038818359375000e-04
2.892017364501953125e-04
3.272294998168945312e-04
1.128911972045898438e-04
1.081228256225585938e-04
3.824234008789062500e-04
3.646612167358398438e-04
2.479553222656250000e-04
-4.410743713378906250e-05
-1.204013824462890625e-05
-1.633167266845703125e-05
-1.609325408935546875e-05
-2.133846282958984375e-05
-2.562999725341796875e-05
-2.396106719970703125e-05
-7.808208465576171875e-05
-3.099441528320312500e-05
-9.274482727050781250e-05
-6.711483001708984375e-05
-8.642673492431640625e-05
-1.280307769775390625e-04
-5.376338958740234375e-05
-4.327297210693359375e-05
-1.847743988037109375e-05
-3.027915954589843750e-05
2.038478851318359375e-05
2.741813659667968750e-06
1.168251037597656250e-05
-4.410743713378906250e-06
-4.529953002929687500e-06
3.802776336669921875e-05
3.123283386230468750e-05
5.936622619628906250e-05
-1.084804534912109375e-05
-1.788139343261718750e-05
2.253055572509765625e-05
9.059906005859375000e-06
-1.454353332519531250e-05
-2.598762512207031250e-05
-2.527236938476562500e-05
-3.015995025634765625e-05
-2.717971801757812500e-05
-6.818771362304687500e-05
-1.002550125122070312e-04
-9.453296661376953125e-05
-1.152753829956054688e-04
-6.270408630371093750e-05
-4.160404205322265625e-05
-5.686283111572265625e-05
-2.622604370117187500e-05
-5.364418029785156250e-05
-2.408027648925781250e-05
2.467632293701171875e-05
-2.419948577880859375e-05
-4.053115844726562500e-06
-2.372264862060546875e-05
-1.525878906250000000e-05
5.578994750976562500e-05
8.583068847656250000e-06
-5.722045898437500000e-06
2.074241638183593750e-05
1.251697540283203125e-05
-8.702278137207031250e-06
1.037120819091796875e-05
-7.629394531250000000e-06
-4.756450653076171875e-05
-3.254413604736328125e-05
-2.658367156982421875e-05
-6.437301635742187500e-06
-4.315376281738281250e-05
-4.506111145019531250e-05
-6.484985351562500000e-05
-3.063678741455078125e-05
-3.921985626220703125e-05
-3.814697265625000000e-05
-9.775161743164062500e-05
-5.710124969482421875e-05
-8.213520050048828125e-05
-7.271766662597656250e-05
-2.324581146240234375e-05
-5.257129669189453125e-05
9.894371032714843750e-06
-2.491474151611328125e-05
9.775161743164062500e-06
8.702278137207031250e-06
-5.960464477539062500e-06
3.802776336669921875e-05
7.510185241699218750e-06
-3.123283386230468750e-05
2.348423004150390625e-05
1.347064971923828125e-05
-1.096725463867187500e-05
-9.179115295410156250e-06
9.179115295410156250e-06
-1.358985900878906250e-05
-5.865097045898437500e-05
-5.602836608886718750e-05
-4.529953002929687500e-06
-4.661083221435546875e-05
-2.944469451904296875e-05
-3.981590270996093750e-05
-3.755092620849609375e-05
-2.181529998779296875e-05
-3.850460052490234375e-05
-1.025199890136718750e-05
-3.182888031005859375e-05
-2.622604370117187500e-06
2.121925354003906250e-05
8.463859558105468750e-06
5.137920379638671875e-05
1.525878906250000000e-05
-7.748603820800781250e-06
-7.629394531250000000e-06
2.467632293701171875e-05
3.349781036376953125e-05
2.849102020263671875e-05
2.419948577880859375e-05
-8.821487426757812500e-06
3.361701965332031250e-05
1.370906829833984375e-05
-7.152557373046875000e-06
4.208087921142578125e-05
2.682209014892578125e-05
-2.205371856689453125e-05
5.018711090087890625e-05
2.384185791015625000e-06
-1.692771911621093750e-05
-1.466274261474609375e-05
4.529953002929687500e-06
7.390975952148437500e-06
-1.430511474609375000e-05
2.002716064453125000e-05
-3.147125244140625000e-05
-3.039836883544921875e-05
-4.041194915771484375e-05
-1.788139343261718750e-05
-6.198883056640625000e-06
5.245208740234375000e-06
-1.776218414306640625e-05
-1.299381256103515625e-05
6.794929504394531250e-06
-2.098083496093750000e-05
-7.307529449462890625e-05
-9.429454803466796875e-05
-2.980232238769531250e-05
-1.704692840576171875e-05
-1.025199890136718750e-05
9.536743164062500000e-06
4.529953002929687500e-06
-2.372264862060546875e-05
-3.933906555175781250e-05
-3.910064697265625000e-05
-4.267692565917968750e-05
-1.072883605957031250e-04
-6.604194641113281250e-05
-8.487701416015625000e-05
-8.463859558105468750e-05
-3.492832183837890625e-05
-5.054473876953125000e-05
-1.859664916992187500e-05
-6.806850433349609375e-05
-5.984306335449218750e-05
-6.890296936035156250e-05
-3.921985626220703125e-05
-3.778934478759765625e-05
-3.492832183837890625e-05
8.702278137207031250e-06
-4.184246063232421875e-05
-3.969669342041015625e-05
-3.302097320556640625e-05
-5.137920379638671875e-05
-3.325939178466796875e-05
-4.422664642333984375e-05
-4.053115844726562500e-05
-7.903575897216796875e-05
-8.726119995117187500e-05
-7.212162017822265625e-05
-6.377696990966796875e-05
-3.480911254882812500e-05
-6.484985351562500000e-05
-5.388259887695312500e-05
-1.585483551025390625e-05
-2.920627593994140625e-05
-6.294250488281250000e-05
-9.000301361083984375e-05
-7.617473602294921875e-05
-1.358985900878906250e-05
-5.602836608886718750e-06
-3.397464752197265625e-05
5.483627319335937500e-06
-2.741813659667968750e-05
-9.167194366455078125e-05
-7.009506225585937500e-05
-2.360343933105468750e-05
-5.745887756347656250e-05
-4.541873931884765625e-05
-4.386901855468750000e-05
-6.783008575439453125e-05
-1.597404479980468750e-05
-4.231929779052734375e-05
-3.814697265625000000e-05
-3.778934478759765625e-05
-1.144409179687500000e-05
-3.552436828613281250e-05
-2.682209014892578125e-05
-5.531311035156250000e-05
-8.893013000488281250e-05
-3.695487976074218750e-05
-6.818771362304687500e-05
-1.132488250732421875e-05
-4.291534423828125000e-05
-5.054473876953125000e-05
-6.854534149169921875e-05
-5.102157592773437500e-05
-4.673004150390625000e-05
-2.813339233398437500e-05
-1.537799835205078125e-05
-7.987022399902343750e-06
-3.230571746826171875e-05
-4.112720489501953125e-05
-3.159046173095703125e-05
-4.458427429199218750e-05
-3.826618194580078125e-05
-2.551078796386718750e-05
-2.539157867431640625e-05
-9.143352508544921875e-05
-3.182888031005859375e-05
-8.535385131835937500e-05
-8.177757263183593750e-05
-4.851818084716796875e-05
-4.506111145019531250e-05
-2.574920654296875000e-05
-4.327297210693359375e-05
-5.936622619628906250e-05
-2.324581146240234375e-05
-2.896785736083984375e-05
-1.895427703857421875e-05
-3.373622894287109375e-05
-8.153915405273437500e-05
-5.519390106201171875e-05
-3.063678741455078125e-05
-2.634525299072265625e-05
-7.426738739013671875e-05
-8.177757263183593750e-05
-6.616115570068359375e-05
-8.797645568847656250e-05
-6.639957427978515625e-05
-6.413459777832031250e-05
-3.767013549804687500e-05
-4.339218139648437500e-05
-5.364418029785156250e-05
-4.804134368896484375e-05
-2.551078796386718750e-05
-3.147125244140625000e-05
-9.405612945556640625e-05
-8.177757263183593750e-05
-7.486343383789062500e-05
-9.107589721679687500e-05
-8.463859558105468750e-05
-7.236003875732421875e-05
-1.083612442016601562e-04
-9.644031524658203125e-05
-6.425380706787109375e-05
-1.013278961181640625e-04
-7.462501525878906250e-05
-5.984306335449218750e-05
-4.255771636962890625e-05
-7.188320159912109375e-05
-3.767013549804687500e-05
-7.867813110351562500e-05
-8.714199066162109375e-05
-7.379055023193359375e-05
-3.612041473388671875e-05
-3.445148468017578125e-05
-8.141994476318359375e-05
-4.541873931884765625e-05
-4.339218139648437500e-05
-8.344650268554687500e-05
-1.633167266845703125e-05
6.413459777832031250e-05
-1.016855239868164062e-04
-7.343292236328125000e-05
-3.254413604736328125e-05
-2.682209014892578125e-05
-7.331371307373046875e-05
-8.845329284667968750e-05
-4.589557647705078125e-05
-2.717971801757812500e-05
-4.172325134277343750e-05
-2.896785736083984375e-05
-2.658367156982421875e-05
-7.593631744384765625e-05
-8.511543273925781250e-05
-2.372264862060546875e-05
1.108646392822265625e-05
-4.136562347412109375e-05
-3.528594970703125000e-05
-2.682209014892578125e-05
-1.394748687744140625e-05
-1.287460327148437500e-05
-3.433227539062500000e-05
-2.026557922363281250e-05
-9.894371032714843750e-06
-3.528594970703125000e-05
-1.323223114013671875e-05
1.513957977294921875e-05
-4.708766937255859375e-05
-4.398822784423828125e-05
-7.247924804687500000e-05
-9.047985076904296875e-05
-6.437301635742187500e-05
-4.899501800537109375e-05
-4.661083221435546875e-05
-6.937980651855468750e-05
-3.778934478759765625e-05
-5.412101745605468750e-05
-8.809566497802734375e-05
-9.298324584960937500e-05
-4.768371582031250000e-05
-7.009506225585937500e-05
-1.978874206542968750e-05
8.344650268554687500e-06
-3.719329833984375000e-05
-2.825260162353515625e-05
-4.267692565917968750e-05
-3.874301910400390625e-05
-1.037120819091796875e-05
-3.743171691894531250e-05
-4.422664642333984375e-05
-5.662441253662109375e-05
-2.408027648925781250e-05
-3.170967102050781250e-05
-8.654594421386718750e-05
-6.306171417236328125e-05
-9.894371032714843750e-06
-1.239776611328125000e-05
-5.197525024414062500e-05
-2.050399780273437500e-05
-1.029968261718750000e-04
-8.201599121093750000e-05
-5.710124969482421875e-05
-5.209445953369140625e-05
-1.394748687744140625e-05
-4.768371582031250000e-07
-4.637241363525390625e-05
-3.945827484130859375e-05
-3.445148468017578125e-05
-2.682209014892578125e-05
-3.719329833984375000e-05
-6.949901580810546875e-05
-7.700920104980468750e-05
-8.130073547363281250e-05
-4.506111145019531250e-05
-2.527236938476562500e-05
-2.682209014892578125e-05
-2.670288085937500000e-05
-2.634525299072265625e-05
-4.589557647705078125e-05
-5.412101745605468750e-05
-5.626678466796875000e-05
-4.112720489501953125e-05
-1.003742218017578125e-04
-7.116794586181640625e-05
-2.872943878173828125e-05
-5.137920379638671875e-05
-5.102157592773437500e-05
-3.170967102050781250e-05
-9.262561798095703125e-05
-6.234645843505859375e-05
-5.388259887695312500e-05
-6.413459777832031250e-05
-3.099441528320312500e-05
-8.881092071533203125e-05
-4.601478576660156250e-05
-1.573562622070312500e-05
-3.778934478759765625e-05
-5.769729614257812500e-05
-6.699562072753906250e-05
-2.670288085937500000e-05
9.179115295410156250e-06
-6.151199340820312500e-05
-4.756450653076171875e-05
-3.719329833984375000e-05
-1.668930053710937500e-05
-1.966953277587890625e-05
-7.951259613037109375e-05
-4.303455352783203125e-05
-8.571147918701171875e-05
-7.784366607666015625e-05
-3.218650817871093750e-06
-8.940696716308593750e-06
-1.800060272216796875e-05
-5.125999450683593750e-05
-6.580352783203125000e-05
-1.382827758789062500e-05
-5.960464477539062500e-06
1.311302185058593750e-06
-1.108646392822265625e-05
-3.588199615478515625e-05
-3.087520599365234375e-05
-3.945827484130859375e-05
-6.914138793945312500e-06
-7.545948028564453125e-05
-9.906291961669921875e-05
-5.233287811279296875e-05
-5.662441253662109375e-05
-7.927417755126953125e-05
-6.818771362304687500e-05
-7.152557373046875000e-07
-5.352497100830078125e-05
-4.136562347412109375e-05
-2.110004425048828125e-05
-1.549720764160156250e-05
-4.673004150390625000e-05
-2.455711364746093750e-05
-6.461143493652343750e-05
-5.900859832763671875e-05
-5.483627319335937500e-06
-1.302957534790039062e-04
-7.748603820800781250e-05
-5.078315734863281250e-05
-5.400180816650390625e-05
-4.434585571289062500e-05
-5.924701690673828125e-05
-5.972385406494140625e-05
-4.136562347412109375e-05
-6.532669067382812500e-05
-5.376338958740234375e-05
-6.902217864990234375e-05
-7.700920104980468750e-05
-4.041194915771484375e-05
-1.220703125000000000e-04
-6.902217864990234375e-05
-4.148483276367187500e-05
-5.483627319335937500e-05
-1.140832901000976562e-04
-9.918212890625000000e-05
-7.379055023193359375e-05
-5.578994750976562500e-05
-5.531311035156250000e-05
-6.389617919921875000e-05
-3.278255462646484375e-05
-6.425380706787109375e-05
-1.919269561767578125e-05
-3.230571746826171875e-05
-8.893013000488281250e-05
-5.614757537841796875e-05
-8.225440979003906250e-05
-1.038312911987304688e-04
-1.046657562255859375e-04
-6.580352783203125000e-05
-1.490116119384765625e-05
-5.614757537841796875e-05
-5.733966827392578125e-05
-1.407861709594726562e-04
-1.145601272583007812e-04
-1.195669174194335938e-04
-1.213550567626953125e-04
-1.153945922851562500e-04
-1.244544982910156250e-04
-1.072883605957031250e-04
-1.286268234252929688e-04
-8.869171142578125000e-05
-9.703636169433593750e-05
-1.007318496704101562e-04
-8.881092071533203125e-05
-1.140832901000976562e-04
-1.162290573120117188e-04
-8.928775787353515625e-05
-1.168251037597656250e-04
-1.211166381835937500e-04
-1.137256622314453125e-04
-1.329183578491210938e-04
-1.018047332763671875e-04
-1.009702682495117188e-04
-1.063346862792968750e-04
-9.739398956298828125e-05
-6.127357482910156250e-05
-2.360343933105468750e-05
-4.553794860839843750e-05
-5.042552947998046875e-05
-3.123283386230468750e-05
-5.996227264404296875e-05
-6.616115570068359375e-05
-3.993511199951171875e-05
-6.198883056640625000e-06
-4.339218139648437500e-05
-1.931190490722656250e-05
-2.217292785644531250e-05
-2.157688140869140625e-05
-1.478195190429687500e-05
-5.817413330078125000e-05
-6.139278411865234375e-05
-5.388259887695312500e-05
-1.513957977294921875e-05
-3.659725189208984375e-05
-7.534027099609375000e-05
-4.374980926513671875e-05
-3.123283386230468750e-05
-5.376338958740234375e-05
-5.054473876953125000e-05
-2.455711364746093750e-05
-2.777576446533203125e-05
-7.045269012451171875e-05
-2.992153167724609375e-05
-2.801418304443359375e-05
-9.679794311523437500e-05
-5.364418029785156250e-05
-3.397464752197265625e-05
-6.020069122314453125e-05
-4.565715789794921875e-05
-3.325939178466796875e-05
-3.278255462646484375e-05
-5.996227264404296875e-05
-5.257129669189453125e-05
-3.671646118164062500e-05
-3.933906555175781250e-05
-3.433227539062500000e-05
-2.396106719970703125e-05
-3.421306610107421875e-05
-3.790855407714843750e-05
-1.454353332519531250e-05
-4.005432128906250000e-05
-7.975101470947265625e-05
-4.565715789794921875e-05
-3.862380981445312500e-05
-4.374980926513671875e-05
-1.075267791748046875e-04
-1.014471054077148438e-04
-7.033348083496093750e-05
-7.426738739013671875e-05
-8.428096771240234375e-05
-9.584426879882812500e-05
-5.042552947998046875e-05
-4.661083221435546875e-05
-1.716613769531250000e-05
5.006790161132812500e-06
-1.430511474609375000e-05
-6.699562072753906250e-05
-6.639957427978515625e-05
-2.336502075195312500e-05
-2.002716064453125000e-05
-1.263618469238281250e-05
-2.753734588623046875e-05
-3.111362457275390625e-05
-9.155273437500000000e-05
-1.752376556396484375e-05
-2.574920654296875000e-05
-5.388259887695312500e-05
-7.319450378417968750e-05
-3.564357757568359375e-05
-4.768371582031250000e-07
-5.090236663818359375e-05
-6.830692291259765625e-05
-3.504753112792968750e-05
-2.098083496093750000e-05
-9.894371032714843750e-06
-3.814697265625000000e-05
-8.320808410644531250e-05
-4.649162292480468750e-05
-2.491474151611328125e-05
-3.600120544433593750e-05
-5.459785461425781250e-05
-1.358985900878906250e-05
-6.937980651855468750e-05
-4.565715789794921875e-05
-5.269050598144531250e-05
-5.066394805908203125e-05
-3.433227539062500000e-05
-2.801418304443359375e-05
-5.114078521728515625e-05
-1.740455627441406250e-05
2.002716064453125000e-05
-2.801418304443359375e-05
-5.006790161132812500e-05
-6.043910980224609375e-05
-2.300739288330078125e-05
-2.062320709228515625e-05
-3.075599670410156250e-05
-4.804134368896484375e-05
-3.290176391601562500e-05
-2.050399780273437500e-05
-5.567073822021484375e-05
-4.863739013671875000e-05
-4.339218139648437500e-05
-3.218650817871093750e-05
-3.945827484130859375e-05
-4.708766937255859375e-05
-2.849102020263671875e-05
-3.790855407714843750e-05
-4.267692565917968750e-05
-5.459785461425781250e-05
-3.838539123535156250e-05
-2.694129943847656250e-05
-3.874301910400390625e-05
-8.583068847656250000e-05
-2.753734588623046875e-05
-3.135204315185546875e-05
-4.482269287109375000e-05
-1.585483551025390625e-05
-4.398822784423828125e-05
-4.351139068603515625e-05
-1.025199890136718750e-05
1.943111419677734375e-05
5.960464477539062500e-06
1.549720764160156250e-06
2.598762512207031250e-05
-2.479553222656250000e-05
-1.168251037597656250e-05
-5.006790161132812500e-06
-1.692771911621093750e-05
9.536743164062500000e-07
-4.684925079345703125e-05
-1.037120819091796875e-05
1.347064971923828125e-05
-2.050399780273437500e-05
-2.133846282958984375e-05
3.314018249511718750e-05
1.645088195800781250e-05
1.215934753417968750e-05
1.537799835205078125e-05
-5.483627319335937500e-06
-1.049041748046875000e-05
-2.944469451904296875e-05
-3.504753112792968750e-05
-2.288818359375000000e-05
-4.732608795166015625e-05
-1.156330108642578125e-05
3.111362457275390625e-05
-3.767013549804687500e-05
-5.841255187988281250e-05
-3.528594970703125000e-05
7.033348083496093750e-06
-1.752376556396484375e-05
-2.205371856689453125e-05
-3.206729888916015625e-05
-2.634525299072265625e-05
8.463859558105468750e-06
-3.218650817871093750e-05
5.722045898437500000e-06
-4.100799560546875000e-05
-7.534027099609375000e-05
-7.295608520507812500e-05
-3.695487976074218750e-05
-2.992153167724609375e-05
-2.014636993408203125e-05
-3.254413604736328125e-05
-6.043910980224609375e-05
-6.508827209472656250e-05
-3.945827484130859375e-05
-3.373622894287109375e-05
-9.417533874511718750e-06
1.192092895507812500e-06
3.063678741455078125e-05
-5.960464477539062500e-07
-1.084804534912109375e-05
3.218650817871093750e-06
6.556510925292968750e-06
-1.466274261474609375e-05
-3.397464752197265625e-05
-1.180171966552734375e-05
-1.657009124755859375e-05
1.192092895507812500e-07
-9.655952453613281250e-06
-3.027915954589843750e-05
-1.621246337890625000e-05
-6.556510925292968750e-06
-2.372264862060546875e-05
-1.132488250732421875e-05
-6.079673767089843750e-06
2.002716064453125000e-05
-8.106231689453125000e-06
-3.445148468017578125e-05
-3.731250762939453125e-05
-1.490116119384765625e-05
-5.960464477539062500e-07
-3.087520599365234375e-05
1.966953277587890625e-05
1.013278961181640625e-05
2.658367156982421875e-05
-2.920627593994140625e-05
-1.931190490722656250e-05
-5.602836608886718750e-06
1.096725463867187500e-05
7.033348083496093750e-06
-5.745887756347656250e-05
7.843971252441406250e-05
1.314878463745117188e-04
7.700920104980468750e-05
-1.227855682373046875e-05
-3.254413604736328125e-05
-4.065036773681640625e-05
-2.980232238769531250e-06
-3.504753112792968750e-05
-4.696846008300781250e-05
-3.099441528320312500e-05
-3.039836883544921875e-05
-1.192092895507812500e-05
5.722045898437500000e-06
-2.014636993408203125e-05
-4.231929779052734375e-05
-3.814697265625000000e-06
1.895427703857421875e-05
-3.600120544433593750e-05
-3.993511199951171875e-05
-2.586841583251953125e-05
6.079673767089843750e-06
-7.987022399902343750e-06
-5.245208740234375000e-06
-8.940696716308593750e-06
-2.384185791015625000e-05
-1.645088195800781250e-05
-2.336502075195312500e-05
-1.180171966552734375e-05
-8.821487426757812500e-06
1.966953277587890625e-05
2.920627593994140625e-05
-1.060962677001953125e-05
-1.597404479980468750e-05
-1.609325408935546875e-05
-3.814697265625000000e-06
1.418590545654296875e-05
3.135204315185546875e-05
-1.442432403564453125e-05
1.025199890136718750e-05
4.327297210693359375e-05
3.695487976074218750e-06
7.271766662597656250e-06
-2.610683441162109375e-05
-6.675720214843750000e-06
-1.168251037597656250e-05
-1.263618469238281250e-05
3.468990325927734375e-05
6.270408630371093750e-05
-8.225440979003906250e-06
-6.747245788574218750e-05
-2.610683441162109375e-05
6.008148193359375000e-05
-2.169609069824218750e-05
-5.626678466796875000e-05
-1.764297485351562500e-05
-3.790855407714843750e-05
7.152557373046875000e-06
2.336502075195312500e-05
3.767013549804687500e-05
1.037120819091796875e-05
-5.125999450683593750e-06
3.695487976074218750e-06
1.811981201171875000e-05
1.204013824462890625e-05
3.814697265625000000e-06
-9.059906005859375000e-06
2.980232238769531250e-06
-7.390975952148437500e-06
3.528594970703125000e-05
1.251697540283203125e-05
-3.492832183837890625e-05
-1.907348632812500000e-06
-2.956390380859375000e-05
1.430511474609375000e-05
-3.385543823242187500e-05
-6.306171417236328125e-05
-5.841255187988281250e-06
-2.729892730712890625e-05
-2.205371856689453125e-05
2.336502075195312500e-05
2.467632293701171875e-05
1.549720764160156250e-06
-1.215934753417968750e-05
-3.969669342041015625e-05
-1.871585845947265625e-05
1.001358032226562500e-05
7.271766662597656250e-06
2.384185791015625000e-06
-5.447864532470703125e-05
-1.907348632812500000e-05
-4.112720489501953125e-05
-3.719329833984375000e-05
-1.668930053710937500e-06
-2.872943878173828125e-05
-2.539157867431640625e-05
-3.194808959960937500e-05
-1.585483551025390625e-05
-2.586841583251953125e-05
-3.457069396972656250e-06
-6.794929504394531250e-05
-8.559226989746093750e-05
-3.027915954589843750e-05
-1.513957977294921875e-05
-4.374980926513671875e-05
-5.292892456054687500e-05
-2.562999725341796875e-05
-7.748603820800781250e-06
-4.529953002929687500e-06
-3.981590270996093750e-05
-3.314018249511718750e-05
-4.863739013671875000e-05
-6.055831909179687500e-05
-3.969669342041015625e-05
-4.053115844726562500e-05
-4.708766937255859375e-05
-4.518032073974609375e-05
-4.303455352783203125e-05
-2.539157867431640625e-05
-3.802776336669921875e-05
-1.156330108642578125e-05
-7.009506225585937500e-05
-7.021427154541015625e-05
-4.947185516357421875e-05
-7.236003875732421875e-05
-3.159046173095703125e-05
-5.114078521728515625e-05
-3.051757812500000000e-05
-5.781650543212890625e-05
-4.506111145019531250e-05
-5.662441253662109375e-05
-1.502037048339843750e-05
-1.561641693115234375e-05
-9.620189666748046875e-05
-3.564357757568359375e-05
-3.242492675781250000e-05
-3.528594970703125000e-05
-4.327297210693359375e-05
-3.707408905029296875e-05
-2.992153167724609375e-05
-5.447864532470703125e-05
-5.948543548583984375e-05
-4.911422729492187500e-05
-6.246566772460937500e-05
-7.736682891845703125e-05
-8.022785186767578125e-05
-5.221366882324218750e-05
-5.865097045898437500e-05
-2.145767211914062500e-05
-6.818771362304687500e-05
-6.222724914550781250e-05
-1.955032348632812500e-05
-5.888938903808593750e-05
-2.992153167724609375e-05
-5.960464477539062500e-05
-9.250640869140625000e-05
-4.625320434570312500e-05
-7.247924804687500000e-05
-1.035928726196289062e-04
-8.487701416015625000e-05
2.137422561645507812e-04
2.622604370117187500e-04
2.807378768920898438e-04
5.030632019042968750e-05
9.858608245849609375e-05
3.393888473510742188e-04
3.587007522583007812e-04
2.276897430419921875e-04
-4.720687866210937500e-05
1.237392425537109375e-04
1.081228256225585938e-04
1.043081283569335938e-04
7.426738739013671875e-05
5.662441253662109375e-05
7.426738739013671875e-05
7.510185241699218750e-05
8.594989776611328125e-05
-1.931190490722656250e-05
-3.480911254882812500e-05
-3.778934478759765625e-05
-4.041194915771484375e-05
-4.744529724121093750e-05
-6.055831909179687500e-05
-2.813339233398437500e-05
-7.128715515136718750e-05
-3.206729888916015625e-05
-1.561641693115234375e-05
-2.801418304443359375e-05
-1.072883605957031250e-06
-1.692771911621093750e-05
-3.206729888916015625e-05
-8.225440979003906250e-06
1.263618469238281250e-05
-2.706050872802734375e-05
4.649162292480468750e-06
1.752376556396484375e-05
-3.862380981445312500e-05
-3.409385681152343750e-05
-3.588199615478515625e-05
-1.597404479980468750e-05
8.344650268554687500e-07
3.671646118164062500e-05
-2.360343933105468750e-05
-4.327297210693359375e-05
-4.315376281738281250e-05
-4.076957702636718750e-05
2.527236938476562500e-05
-6.651878356933593750e-05
-4.351139068603515625e-05
-3.707408905029296875e-05
-7.808208465576171875e-05
-1.978874206542968750e-05
-6.473064422607421875e-05
-7.629394531250000000e-05
-8.344650268554687500e-06
-5.435943603515625000e-05
-3.027915954589843750e-05
-4.816055297851562500e-05
-1.716613769531250000e-05
-6.556510925292968750e-06
-2.288818359375000000e-05
1.859664916992187500e-05
4.053115844726562500e-06
-5.602836608886718750e-06
-1.811981201171875000e-05
-8.225440979003906250e-06
-1.311302185058593750e-05
-2.968311309814453125e-05
1.060962677001953125e-05
-6.842613220214843750e-05
-3.361701965332031250e-05
2.777576446533203125e-05
-1.430511474609375000e-06
-3.075599670410156250e-05
-2.944469451904296875e-05
-2.777576446533203125e-05
-6.282329559326171875e-05
-7.808208465576171875e-05
-6.723403930664062500e-05
-2.789497375488281250e-05
-3.099441528320312500e-06
-1.347064971923828125e-05
-3.838539123535156250e-05
-2.551078796386718750e-05
-3.981590270996093750e-05
-3.433227539062500000e-05
-4.911422729492187500e-05
-2.253055572509765625e-05
-3.719329833984375000e-05
-4.458427429199218750e-05
2.396106719970703125e-05
1.430511474609375000e-06
-2.634525299072265625e-05
-2.717971801757812500e-05
-2.574920654296875000e-05
-4.529953002929687500e-06
4.768371582031250000e-07
3.492832183837890625e-05
-1.549720764160156250e-05
-1.132488250732421875e-05
5.531311035156250000e-05
1.072883605957031250e-05
-2.753734588623046875e-05
-5.161762237548828125e-05
-1.621246337890625000e-05
-4.351139068603515625e-05
-4.267692565917968750e-05
-3.802776336669921875e-05
-2.861022949218750000e-05
-2.384185791015625000e-06
-1.621246337890625000e-05
-5.674362182617187500e-05
-5.733966827392578125e-05
-3.135204315185546875e-05
-3.123283386230468750e-05
-4.422664642333984375e-05
-5.328655242919921875e-05
-6.163120269775390625e-05
-5.245208740234375000e-05
-4.255771636962890625e-05
-1.001358032226562500e-05
-3.659725189208984375e-05
-2.872943878173828125e-05
-6.937980651855468750e-05
-6.055831909179687500e-05
-3.707408905029296875e-05
-5.626678466796875000e-05
-6.198883056640625000e-05
-5.936622619628906250e-05
-3.838539123535156250e-05
-6.699562072753906250e-05
-3.767013549804687500e-05
-1.299381256103515625e-05
-6.127357482910156250e-05
-8.618831634521484375e-05
2.872943878173828125e-05
-5.245208740234375000e-05
-8.523464202880859375e-05
-6.175041198730468750e-05
-9.119510650634765625e-05
-2.729892730712890625e-05
-7.045269012451171875e-05
-6.127357482910156250e-05
-5.328655242919921875e-05
-6.139278411865234375e-05
-7.331371307373046875e-05
-9.584426879882812500e-05
-5.066394805908203125e-05
-4.005432128906250000e-05
-5.257129669189453125e-05
-2.717971801757812500e-05
-1.454353332519531250e-05
-1.883506774902343750e-05
-2.217292785644531250e-05
-3.254413604736328125e-05
-1.311302185058593750e-06
-3.528594970703125000e-05
-3.552436828613281250e-05
-2.467632293701171875e-05
-2.908706665039062500e-05
-2.837181091308593750e-05
1.645088195800781250e-05
-5.733966827392578125e-05
-5.841255187988281250e-05
-4.506111145019531250e-05
-2.658367156982421875e-05
-1.704692840576171875e-05
-5.578994750976562500e-05
5.841255187988281250e-06
-6.163120269775390625e-05
-6.973743438720703125e-05
-5.066394805908203125e-05
-3.087520599365234375e-05
-2.491474151611328125e-05
-2.086162567138671875e-05
-1.645088195800781250e-05
-1.013278961181640625e-05
2.264976501464843750e-06
-2.360343933105468750e-05
-9.417533874511718750e-06
-3.027915954589843750e-05
-5.483627319335937500e-05
-8.738040924072265625e-05
-1.931190490722656250e-05
-5.364418029785156250e-05
-7.557868957519531250e-05
-5.769729614257812500e-05
-4.231929779052734375e-05
2.264976501464843750e-06
-4.804134368896484375e-05
-2.777576446533203125e-05
-1.990795135498046875e-05
-2.527236938476562500e-05
-1.788139343261718750e-06
-6.878376007080078125e-05
-7.879734039306640625e-05
-1.811981201171875000e-05
-2.408027648925781250e-05
-3.516674041748046875e-05
-4.684925079345703125e-05
-5.924701690673828125e-05
-2.193450927734375000e-05
-5.686283111572265625e-05
-4.351139068603515625e-05
-8.344650268554687500e-06
-2.908706665039062500e-05
-3.850460052490234375e-05
-8.809566497802734375e-05
-7.176399230957031250e-05
-9.882450103759765625e-05
-9.834766387939453125e-05
-6.687641143798828125e-05
-7.712841033935546875e-05
-9.119510650634765625e-05
-9.512901306152343750e-05
-4.637241363525390625e-05
-5.376338958740234375e-05
-4.673004150390625000e-05
-5.233287811279296875e-05
-3.325939178466796875e-05
-7.355213165283203125e-05
-6.687641143798828125e-05
-2.205371856689453125e-05
-6.377696990966796875e-05
-6.341934204101562500e-05
-8.857250213623046875e-05
-1.006126403808593750e-04
-1.213550567626953125e-04
-8.463859558105468750e-05
-8.165836334228515625e-05
-7.522106170654296875e-05
-9.632110595703125000e-05
-4.756450653076171875e-05
-7.236003875732421875e-05
-5.781650543212890625e-05
-7.116794586181640625e-05
-8.034706115722656250e-05
-8.428096771240234375e-05
-9.131431579589843750e-05
-6.556510925292968750e-05
-9.715557098388671875e-05
-2.646446228027343750e-05
-4.303455352783203125e-05
-6.389617919921875000e-05
-6.985664367675781250e-05
-5.662441253662109375e-05
-4.112720489501953125e-05
-7.963180541992187500e-05
-6.878376007080078125e-05
-8.594989776611328125e-05
-5.805492401123046875e-05
-5.757808685302734375e-05
-7.057189941406250000e-05
-7.700920104980468750e-05
-9.214878082275390625e-05
-8.189678192138671875e-05
-8.273124694824218750e-05
-6.854534149169921875e-05
-6.651878356933593750e-05
-9.226799011230468750e-05
-6.282329559326171875e-05
-6.818771362304687500e-05
-9.536743164062500000e-05
-5.877017974853515625e-05
-5.185604095458984375e-05
-4.971027374267578125e-05
-6.341934204101562500e-05
-9.334087371826171875e-05
-6.210803985595703125e-05
-6.806850433349609375e-05
-4.494190216064453125e-05
-5.650520324707031250e-05
-6.735324859619140625e-05
-9.477138519287109375e-05
-8.356571197509765625e-05
-4.863739013671875000e-05
-8.475780487060546875e-05
-7.581710815429687500e-05
-5.936622619628906250e-05
-4.148483276367187500e-05
-1.119375228881835938e-04
-1.101493835449218750e-04
-1.332759857177734375e-04
-1.264810562133789062e-04
-8.583068847656250000e-05
-8.809566497802734375e-05
-1.034736633300781250e-04
-8.785724639892578125e-05
-9.810924530029296875e-05
-6.794929504394531250e-05
-6.437301635742187500e-05
-1.001358032226562500e-04
-7.975101470947265625e-05
-7.271766662597656250e-05
-8.416175842285156250e-05
-1.236200332641601562e-04
-9.143352508544921875e-05
-8.690357208251953125e-05
-4.291534423828125000e-05
-7.271766662597656250e-05
-7.283687591552734375e-05
-9.989738464355468750e-05
-1.099109649658203125e-04
-3.445148468017578125e-05
-8.404254913330078125e-05
-7.188320159912109375e-05
-1.071691513061523438e-04
-1.229047775268554688e-04
-9.179115295410156250e-05
-5.364418029785156250e-05
4.732608795166015625e-05
-5.602836608886718750e-06
-9.965896606445312500e-05
-6.759166717529296875e-05
-9.870529174804687500e-05
-1.326799392700195312e-04
-6.902217864990234375e-05
-7.402896881103515625e-05
-7.629394531250000000e-05
-9.751319885253906250e-05
-4.243850708007812500e-05
-4.458427429199218750e-05
-8.451938629150390625e-05
-7.820129394531250000e-05
-1.108646392822265625e-04
-5.853176116943359375e-05
-9.751319885253906250e-05
-1.212358474731445312e-04
-5.066394805908203125e-05
-4.708766937255859375e-05
-6.294250488281250000e-05
-7.534027099609375000e-05
-9.059906005859375000e-05
-5.853176116943359375e-05
-2.098083496093750000e-05
-1.907348632812500000e-05
-3.075599670410156250e-05
-1.680850982666015625e-05
-4.208087921142578125e-05
-2.682209014892578125e-05
-2.682209014892578125e-05
-1.323223114013671875e-05
-1.430511474609375000e-05
-4.947185516357421875e-05
-5.590915679931640625e-05
-3.492832183837890625e-05
-2.598762512207031250e-05
-4.673004150390625000e-05
-1.919269561767578125e-05
-1.192092895507812500e-05
-4.541873931884765625e-05
-1.080036163330078125e-04
-8.797645568847656250e-05
-9.715557098388671875e-05
-8.237361907958984375e-05
-7.688999176025390625e-05
-8.201599121093750000e-05
-6.997585296630859375e-05
-5.662441253662109375e-05
-6.937980651855468750e-05
-9.036064147949218750e-05
-1.006126403808593750e-04
-7.069110870361328125e-05
-5.793571472167968750e-05
-1.008510589599609375e-04
1.049041748046875000e-05
-2.658367156982421875e-05
-7.677078247070312500e-05
-9.715557098388671875e-05
-4.434585571289062500e-05
-6.318092346191406250e-05
-5.030632019042968750e-05
-1.883506774902343750e-05
-3.480911254882812500e-05
-1.919269561767578125e-05
-3.480911254882812500e-05
-4.041194915771484375e-05
-5.531311035156250000e-05
-1.132488250732421875e-05
-6.210803985595703125e-05
-4.458427429199218750e-05
-3.588199615478515625e-05
-5.912780761718750000e-05
-5.853176116943359375e-05
-1.084804534912109375e-04
-6.687641143798828125e-05
-5.221366882324218750e-05
-5.114078521728515625e-05
-5.888938903808593750e-05
-4.589557647705078125e-05
-3.242492675781250000e-05
-4.816055297851562500e-05
-9.059906005859375000e-06
-3.445148468017578125e-05
-5.602836608886718750e-05
-7.367134094238281250e-05
-8.189678192138671875e-05
-6.258487701416015625e-05
-1.931190490722656250e-05
5.483627319335937500e-06
-2.551078796386718750e-05
-1.633167266845703125e-05
-1.609325408935546875e-05
-2.539157867431640625e-05
-4.112720489501953125e-05
-2.336502075195312500e-05
8.702278137207031250e-06
-3.969669342041015625e-05
-5.555152893066406250e-05
3.695487976074218750e-06
-5.364418029785156250e-06
-2.574920654296875000e-05
-4.673004150390625000e-05
-2.157688140869140625e-05
-2.229213714599609375e-05
-6.139278411865234375e-05
1.072883605957031250e-06
-4.434585571289062500e-05
-2.717971801757812500e-05
-5.722045898437500000e-06
-7.688999176025390625e-05
-8.165836334228515625e-05
-5.662441253662109375e-05
-6.115436553955078125e-05
-2.670288085937500000e-05
-4.529953002929687500e-06
-1.132488250732421875e-05
-3.230571746826171875e-05
-6.961822509765625000e-05
-5.185604095458984375e-05
-8.356571197509765625e-05
-8.583068847656250000e-05
-1.063346862792968750e-04
-9.512901306152343750e-05
-5.638599395751953125e-05
-6.222724914550781250e-05
-1.345872879028320312e-04
-9.655952453613281250e-05
-7.057189941406250000e-05
-6.949901580810546875e-05
-5.459785461425781250e-05
-5.817413330078125000e-05
-7.200241088867187500e-05
-8.928775787353515625e-05
-4.744529724121093750e-05
-3.349781036376953125e-05
-4.732608795166015625e-05
1.156330108642578125e-05
4.088878631591796875e-05
4.768371582031250000e-06
-8.463859558105468750e-06
-6.997585296630859375e-05
-5.805492401123046875e-05
-8.082389831542968750e-05
-1.033544540405273438e-04
-7.116794586181640625e-05
-6.580352783203125000e-05
-2.908706665039062500e-05
-6.449222564697265625e-05
-5.483627319335937500e-05
-6.282329559326171875e-05
-5.185604095458984375e-05
-4.839897155761718750e-05
-5.888938903808593750e-05
-3.635883331298828125e-05
-5.877017974853515625e-05
-5.280971527099609375e-05
-7.677078247070312500e-05
-2.908706665039062500e-05
-7.092952728271484375e-05
-3.588199615478515625e-05
-5.996227264404296875e-05
-7.331371307373046875e-05
-3.671646118164062500e-05
-4.184246063232421875e-05
-5.459785461425781250e-05
-9.346008300781250000e-05
-6.127357482910156250e-05
-8.988380432128906250e-05
-9.369850158691406250e-05
-7.593631744384765625e-05
-6.341934204101562500e-05
-1.106262207031250000e-04
-9.107589721679687500e-05
-5.471706390380859375e-05
-6.282329559326171875e-05
-5.292892456054687500e-05
-7.152557373046875000e-05
-3.564357757568359375e-05
-4.601478576660156250e-05
-8.428096771240234375e-05
-5.352497100830078125e-05
-4.577636718750000000e-05
-5.996227264404296875e-05
-3.921985626220703125e-05
-5.137920379638671875e-05
-4.005432128906250000e-05
-3.564357757568359375e-05
-2.610683441162109375e-05
-6.806850433349609375e-05
-5.686283111572265625e-05
2.920627593994140625e-05
-3.337860107421875000e-06
3.993511199951171875e-05
3.373622894287109375e-05
-8.118152618408203125e-05
-5.459785461425781250e-05
-6.723403930664062500e-05
-1.060962677001953125e-04
-5.269050598144531250e-05
-7.820129394531250000e-05
-9.191036224365234375e-05
-7.247924804687500000e-05
-6.413459777832031250e-05
-7.855892181396484375e-05
-6.473064422607421875e-05
-4.541873931884765625e-05
-5.257129669189453125e-05
-3.647804260253906250e-05
-1.430511474609375000e-05
-3.361701965332031250e-05
-7.581710815429687500e-05
-7.748603820800781250e-05
-4.303455352783203125e-05
-7.438659667968750000e-05
-5.376338958740234375e-05
-7.557868957519531250e-05
-5.757808685302734375e-05
-4.327297210693359375e-05
-4.541873931884765625e-05
-6.389617919921875000e-05
-9.870529174804687500e-05
-9.477138519287109375e-05
-3.600120544433593750e-05
-3.635883331298828125e-05
-2.694129943847656250e-05
-5.698204040527343750e-05
-6.210803985595703125e-05
-3.957748413085937500e-05
-6.079673767089843750e-05
-6.365776062011718750e-05
-6.413459777832031250e-05
-8.511543273925781250e-05
-5.733966827392578125e-05
-4.708766937255859375e-05
-4.899501800537109375e-05
-5.710124969482421875e-05
-9.715557098388671875e-05
-4.076957702636718750e-05
-9.107589721679687500e-05
-9.024143218994140625e-05
-9.751319885253906250e-05
-3.421306610107421875e-05
-5.590915679931640625e-05
-4.541873931884765625e-05
-4.351139068603515625e-05
-5.626678466796875000e-05
-4.863739013671875000e-05
-8.189678192138671875e-05
-8.189678192138671875e-05
-8.499622344970703125e-05
-1.025199890136718750e-04
-1.316070556640625000e-04
-1.065731048583984375e-04
-6.580352783203125000e-05
-5.531311035156250000e-05
-8.976459503173828125e-05
-7.152557373046875000e-05
-3.671646118164062500e-05
-4.541873931884765625e-05
-4.649162292480468750e-05
-8.153915405273437500e-05
-7.617473602294921875e-05
-4.994869232177734375e-05
-3.826618194580078125e-05
-2.980232238769531250e-05
-4.231929779052734375e-05
-3.480911254882812500e-05
-4.470348358154296875e-05
-8.451938629150390625e-05
-8.249282836914062500e-05
-3.457069396972656250e-05
-4.780292510986328125e-05
-8.046627044677734375e-05
-7.677078247070312500e-05
-5.710124969482421875e-05
-8.845329284667968750e-05
-4.518032073974609375e-05
-3.027915954589843750e-05
-8.630752563476562500e-05
-5.769729614257812500e-05
-7.104873657226562500e-05
-6.556510925292968750e-05
-8.416175842285156250e-05
-6.139278411865234375e-05
-9.119510650634765625e-05
-8.976459503173828125e-05
-7.379055023193359375e-05
-1.099109649658203125e-04
-1.021623611450195312e-04
-3.099441528320312500e-05
-2.956390380859375000e-05
-4.684925079345703125e-05
-4.327297210693359375e-05
-6.389617919921875000e-05
-5.102157592773437500e-05
-2.598762512207031250e-05
-6.270408630371093750e-05
-2.074241638183593750e-05
-9.655952453613281250e-06
-4.565715789794921875e-05
-1.442432403564453125e-05
-3.230571746826171875e-05
-3.814697265625000000e-05
5.602836608886718750e-06
-3.027915954589843750e-05
-6.806850433349609375e-05
-3.445148468017578125e-05
-4.351139068603515625e-05
-2.968311309814453125e-05
-5.280971527099609375e-05
-5.471706390380859375e-05
-3.945827484130859375e-05
-8.237361907958984375e-05
-4.971027374267578125e-05
-6.651878356933593750e-05
-9.286403656005859375e-05
-1.633167266845703125e-05
-4.434585571289062500e-05
-5.602836608886718750e-05
-4.529953002929687500e-05
-1.800060272216796875e-05
-2.074241638183593750e-05
-3.170967102050781250e-05
-6.389617919921875000e-05
-2.849102020263671875e-05
-7.295608520507812500e-05
-5.817413330078125000e-05
-4.506111145019531250e-05
-7.677078247070312500e-05
-1.037120819091796875e-05
-3.588199615478515625e-05
-2.431869506835937500e-05
-4.923343658447265625e-05
-6.449222564697265625e-05
-4.339218139648437500e-05
-4.124641418457031250e-05
-5.161762237548828125e-05
-5.376338958740234375e-05
-7.987022399902343750e-05
-6.175041198730468750e-05
-8.952617645263671875e-05
-8.594989776611328125e-05
-9.477138519287109375e-05
-7.486343383789062500e-05
-1.010894775390625000e-04
-7.891654968261718750e-05
-3.135204315185546875e-05
-5.650520324707031250e-05
-5.352497100830078125e-05
-7.557868957519531250e-05
-5.054473876953125000e-05
-6.079673767089843750e-05
-9.989738464355468750e-05
-3.731250762939453125e-05
-2.789497375488281250e-05
-5.924701690673828125e-05
-1.919269561767578125e-05
-5.626678466796875000e-05
-7.283687591552734375e-05
-5.578994750976562500e-05
-3.826618194580078125e-05
-7.319450378417968750e-05
-6.031990051269531250e-05
-9.751319885253906250e-05
-9.405612945556640625e-05
-3.957748413085937500e-05
-7.903575897216796875e-05
-6.675720214843750000e-05
-6.318092346191406250e-05
-6.413459777832031250e-05
-5.388259887695312500e-05
-4.351139068603515625e-05
-5.257129669189453125e-05
-6.341934204101562500e-05
-7.903575897216796875e-05
-8.451938629150390625e-05
-8.511543273925781250e-05
-7.688999176025390625e-05
-7.963180541992187500e-05
-7.057189941406250000e-05
-1.113414764404296875e-04
-4.947185516357421875e-05
-3.266334533691406250e-05
-3.457069396972656250e-05
-4.541873931884765625e-05
-3.123283386230468750e-05
-3.862380981445312500e-05
-3.850460052490234375e-05
-4.565715789794921875e-05
1.049041748046875000e-05
2.861022949218750000e-06
-3.612041473388671875e-05
-6.711483001708984375e-05
-3.349781036376953125e-05
1.764297485351562500e-05
-3.063678741455078125e-05
-2.205371856689453125e-05
-2.920627593994140625e-05
-5.269050598144531250e-05
-3.802776336669921875e-05
-4.291534423828125000e-05
-7.486343383789062500e-05
-7.486343383789062500e-05
-6.246566772460937500e-05
-1.084804534912109375e-05
-4.684925079345703125e-05
-3.576278686523437500e-05
-9.560585021972656250e-05
-3.421306610107421875e-05
1.966953277587890625e-05
-1.835823059082031250e-05
-1.358985900878906250e-05
-3.659725189208984375e-05
-1.263618469238281250e-05
2.562999725341796875e-05
3.933906555175781250e-06
-1.323223114013671875e-05
-2.622604370117187500e-05
1.072883605957031250e-06
-4.434585571289062500e-05
-1.978874206542968750e-05
-3.886222839355468750e-05
-5.447864532470703125e-05
-1.025199890136718750e-05
-4.243850708007812500e-05
-1.466274261474609375e-05
-3.004074096679687500e-05
-5.674362182617187500e-05
-2.026557922363281250e-05
-1.752376556396484375e-05
1.275539398193359375e-05
-5.161762237548828125e-05
-3.969669342041015625e-05
-9.536743164062500000e-07
4.410743713378906250e-06
-6.437301635742187500e-06
-5.519390106201171875e-05
-2.408027648925781250e-05
1.049041748046875000e-05
-2.503395080566406250e-06
-4.410743713378906250e-06
-1.287460327148437500e-05
-2.503395080566406250e-05
-4.518032073974609375e-05
-7.617473602294921875e-05
-4.708766937255859375e-05
5.483627319335937500e-06
1.227855682373046875e-05
1.811981201171875000e-05
-2.741813659667968750e-05
-2.944469451904296875e-05
-1.311302185058593750e-05
-5.722045898437500000e-06
-1.239776611328125000e-05
-2.729892730712890625e-05
-3.135204315185546875e-05
1.907348632812500000e-06
-2.372264862060546875e-05
-2.861022949218750000e-06
0.000000000000000000e+00
-7.152557373046875000e-07
-2.431869506835937500e-05
-5.125999450683593750e-06
1.037120819091796875e-05
-6.914138793945312500e-06
-5.960464477539062500e-07
1.275539398193359375e-05
-1.227855682373046875e-05
-5.400180816650390625e-05
-3.695487976074218750e-06
-2.825260162353515625e-05
-4.327297210693359375e-05
-5.006790161132812500e-06
-2.145767211914062500e-06
-7.629394531250000000e-06
1.251697540283203125e-05
2.658367156982421875e-05
-1.120567321777343750e-05
-1.156330108642578125e-05
-3.576278686523437500e-07
1.037120819091796875e-05
-3.814697265625000000e-05
-3.504753112792968750e-05
9.536743164062500000e-06
-1.275539398193359375e-05
3.910064697265625000e-05
-2.562999725341796875e-05
1.895427703857421875e-05
2.741813659667968750e-06
-1.013278961181640625e-05
-3.528594970703125000e-05
-2.324581146240234375e-05
-7.665157318115234375e-05
-1.184940338134765625e-04
-4.363059997558593750e-05
-5.662441253662109375e-05
-7.379055023193359375e-05
-8.499622344970703125e-05
-8.642673492431640625e-05
-7.510185241699218750e-05
-7.867813110351562500e-05
-6.985664367675781250e-05
-4.363059997558593750e-05
-5.173683166503906250e-05
-7.236003875732421875e-05
-8.022785186767578125e-05
-6.318092346191406250e-05
-4.184246063232421875e-05
-4.863739013671875000e-05
-4.935264587402343750e-05
-5.710124969482421875e-05
-4.374980926513671875e-05
-3.039836883544921875e-05
-3.087520599365234375e-05
-5.567073822021484375e-05
-7.009506225585937500e-05
-5.626678466796875000e-05
-5.781650543212890625e-05
-7.140636444091796875e-05
-5.137920379638671875e-05
-8.821487426757812500e-05
-3.683567047119140625e-05
-2.193450927734375000e-05
-2.276897430419921875e-05
-8.249282836914062500e-05
-8.523464202880859375e-05
-3.826618194580078125e-05
-7.331371307373046875e-05
-6.234645843505859375e-05
-3.969669342041015625e-05
-8.583068847656250000e-05
-5.054473876953125000e-05
-5.066394805908203125e-05
-1.010894775390625000e-04
-8.010864257812500000e-05
-9.572505950927734375e-05
-1.221895217895507812e-04
-1.354217529296875000e-04
-4.827976226806640625e-05
-8.237361907958984375e-05
-1.240968704223632812e-04
-1.512765884399414062e-04
-1.305341720581054688e-04
-1.362562179565429688e-04
-8.225440979003906250e-05
-6.687641143798828125e-05
-7.915496826171875000e-05
-4.470348358154296875e-05
-6.055831909179687500e-05
2.242326736450195312e-04
2.434253692626953125e-04
2.564191818237304688e-04
1.156330108642578125e-05
1.145601272583007812e-04
3.232955932617187500e-04
2.942085266113281250e-04
2.146959304809570312e-04
-8.630752563476562500e-05
-4.708766937255859375e-05
-8.618831634521484375e-05
-5.877017974853515625e-05
-6.806850433349609375e-05
-6.175041198730468750e-05
-1.038312911987304688e-04
-5.495548248291015625e-05
-1.049041748046875000e-04
-1.057386398315429688e-04
-9.846687316894531250e-05
-6.973743438720703125e-05
-6.616115570068359375e-05
-6.067752838134765625e-05
-1.931190490722656250e-05
-6.937980651855468750e-05
-4.434585571289062500e-05
-3.576278686523437500e-05
-5.960464477539062500e-06
-8.642673492431640625e-05
-3.683567047119140625e-05
-2.229213714599609375e-05
-2.443790435791015625e-05
-6.914138793945312500e-06
-8.201599121093750000e-05
-1.296997070312500000e-04
-6.186962127685546875e-05
-5.257129669189453125e-05
-4.947185516357421875e-05
-5.054473876953125000e-05
-6.103515625000000000e-05
-9.775161743164062500e-06
1.323223114013671875e-05
4.291534423828125000e-06
-3.111362457275390625e-05
-2.372264862060546875e-05
-4.982948303222656250e-05
-1.764297485351562500e-05
-2.360343933105468750e-05
-4.529953002929687500e-05
-5.888938903808593750e-05
-6.294250488281250000e-05
-4.827976226806640625e-05
-1.859664916992187500e-05
-4.899501800537109375e-05
-8.356571197509765625e-05
-8.618831634521484375e-05
-8.106231689453125000e-06
-4.577636718750000000e-05
-6.163120269775390625e-05
-4.506111145019531250e-05
-5.996227264404296875e-05
-2.169609069824218750e-05
-2.956390380859375000e-05
1.013278961181640625e-05
-2.181529998779296875e-05
1.287460327148437500e-05
1.525878906250000000e-05
-2.479553222656250000e-05
7.390975952148437500e-06
-7.092952728271484375e-05
-6.651878356933593750e-05
-5.102157592773437500e-05
-4.112720489501953125e-05
-4.005432128906250000e-05
-9.131431579589843750e-05
-7.784366607666015625e-05
-5.054473876953125000e-05
-1.095533370971679688e-04
-1.174211502075195312e-04
-1.405477523803710938e-04
-1.204013824462890625e-04
-6.592273712158203125e-05
-6.353855133056640625e-05
-6.532669067382812500e-05
-1.034736633300781250e-04
-3.063678741455078125e-05
-1.871585845947265625e-05
-2.694129943847656250e-05
-1.251697540283203125e-05
5.841255187988281250e-06
5.841255187988281250e-06
-1.096725463867187500e-05
-5.722045898437500000e-06
-4.887580871582031250e-05
-1.249313354492187500e-04
-8.189678192138671875e-05
-7.498264312744140625e-05
-3.945827484130859375e-05
-1.024007797241210938e-04
-9.810924530029296875e-05
-1.088380813598632812e-04
-7.688999176025390625e-05
-5.221366882324218750e-05
-3.528594970703125000e-05
-7.021427154541015625e-05
-6.222724914550781250e-05
-6.818771362304687500e-05
-1.057386398315429688e-04
-6.544589996337890625e-05
-6.306171417236328125e-05
-2.884864807128906250e-05
-7.867813110351562500e-06
3.659725189208984375e-05
-4.744529724121093750e-05
-3.993511199951171875e-05
-4.160404205322265625e-05
-4.518032073974609375e-05
-5.435943603515625000e-05
-1.167058944702148438e-04
-8.714199066162109375e-05
-7.402896881103515625e-05
-8.344650268554687500e-05
-3.254413604736328125e-05
-6.878376007080078125e-05
-4.816055297851562500e-05
-3.647804260253906250e-05
-6.175041198730468750e-05
-7.390975952148437500e-05
-5.233287811279296875e-05
-5.471706390380859375e-05
-6.580352783203125000e-05
-6.735324859619140625e-05
-5.316734313964843750e-05
-2.801418304443359375e-05
-3.159046173095703125e-05
-5.125999450683593750e-05
-4.386901855468750000e-05
-2.896785736083984375e-05
-3.576278686523437500e-06
-4.076957702636718750e-05
-4.017353057861328125e-05
-4.172325134277343750e-05
-4.947185516357421875e-05
-6.711483001708984375e-05
-7.116794586181640625e-05
-4.923343658447265625e-05
-6.031990051269531250e-05
-8.344650268554687500e-05
-2.121925354003906250e-05
-3.468990325927734375e-05
-5.865097045898437500e-05
-2.777576446533203125e-05
-8.654594421386718750e-05
-9.989738464355468750e-05
-7.140636444091796875e-05
-6.258487701416015625e-05
-8.916854858398437500e-05
-5.006790161132812500e-05
-3.600120544433593750e-05
-7.975101470947265625e-05
-1.004934310913085938e-04
-6.413459777832031250e-05
-3.039836883544921875e-05
-8.821487426757812500e-05
-1.105070114135742188e-04
-1.237392425537109375e-04
-1.066923141479492188e-04
-7.629394531250000000e-05
-1.181364059448242188e-04
-1.138448715209960938e-04
-1.124143600463867188e-04
-1.426935195922851562e-04
-1.078844070434570312e-04
-9.179115295410156250e-05
-1.007318496704101562e-04
-8.571147918701171875e-05
-9.131431579589843750e-05
-1.149177551269531250e-04
-8.511543273925781250e-05
-1.003742218017578125e-04
-7.414817810058593750e-05
-1.013278961181640625e-04
-1.549720764160156250e-04
-6.127357482910156250e-05
-1.027584075927734375e-04
-9.787082672119140625e-05
-9.286403656005859375e-05
-1.082420349121093750e-04
-8.821487426757812500e-05
-5.686283111572265625e-05
-9.536743164062500000e-05
-6.997585296630859375e-05
-9.799003601074218750e-05
-1.059770584106445312e-04
-9.632110595703125000e-05
-5.900859832763671875e-05
-3.850460052490234375e-05
-1.152753829956054688e-04
-8.320808410644531250e-05
-1.016855239868164062e-04
-8.690357208251953125e-05
-4.076957702636718750e-05
6.556510925292968750e-06
-3.862380981445312500e-05
-8.261203765869140625e-05
-1.131296157836914062e-04
-9.822845458984375000e-05
-3.874301910400390625e-05
-7.843971252441406250e-05
-1.053810119628906250e-04
-1.208782196044921875e-04
-1.130104064941406250e-04
-7.534027099609375000e-05
-8.559226989746093750e-05
-8.523464202880859375e-05
-7.545948028564453125e-05
-4.625320434570312500e-05
-4.875659942626953125e-05
-9.179115295410156250e-05
-1.395940780639648438e-04
-1.157522201538085938e-04
-1.266002655029296875e-04
-9.679794311523437500e-05
-1.028776168823242188e-04
-8.261203765869140625e-05
-6.735324859619140625e-05
-4.398822784423828125e-05
-4.982948303222656250e-05
-1.657009124755859375e-05
-5.495548248291015625e-05
-5.912780761718750000e-05
-3.850460052490234375e-05
-5.233287811279296875e-05
-8.094310760498046875e-05
-9.679794311523437500e-05
-4.899501800537109375e-05
-8.428096771240234375e-05
-9.286403656005859375e-05
-8.940696716308593750e-05
-1.134872436523437500e-04
-1.133680343627929688e-04
-8.988380432128906250e-05
-9.441375732421875000e-05
-9.405612945556640625e-05
-8.106231689453125000e-05
-7.510185241699218750e-05
-5.233287811279296875e-05
-8.237361907958984375e-05
-9.775161743164062500e-05
-8.416175842285156250e-05
-4.506111145019531250e-05
-3.695487976074218750e-05
-2.634525299072265625e-05
-2.181529998779296875e-05
-3.159046173095703125e-05
1.931190490722656250e-05
-1.311302185058593750e-05
-7.355213165283203125e-05
-5.352497100830078125e-05
8.463859558105468750e-06
-6.473064422607421875e-05
-5.352497100830078125e-05
-9.298324584960937500e-06
-2.610683441162109375e-05
-3.647804260253906250e-05
-6.508827209472656250e-05
-3.123283386230468750e-05
-3.302097320556640625e-05
-3.421306610107421875e-05
-4.458427429199218750e-05
-6.628036499023437500e-05
-1.032352447509765625e-04
-1.348257064819335938e-04
-4.398822784423828125e-05
-2.908706665039062500e-05
-2.503395080566406250e-05
-3.242492675781250000e-05
-6.127357482910156250e-05
-4.410743713378906250e-05
-1.883506774902343750e-05
-3.182888031005859375e-05
-1.080036163330078125e-04
-4.971027374267578125e-05
-8.904933929443359375e-05
-1.835823059082031250e-05
-3.266334533691406250e-05
-5.853176116943359375e-05
-2.920627593994140625e-05
-4.529953002929687500e-05
-4.780292510986328125e-05
-2.324581146240234375e-05
-3.933906555175781250e-05
1.513957977294921875e-05
1.060962677001953125e-05
-9.679794311523437500e-05
-5.125999450683593750e-05
-5.686283111572265625e-05
-4.112720489501953125e-05
-7.367134094238281250e-05
-1.931190490722656250e-05
-3.218650817871093750e-05
-3.385543823242187500e-05
-6.508827209472656250e-05
-8.940696716308593750e-05
-4.649162292480468750e-05
-2.551078796386718750e-05
-9.059906005859375000e-06
-4.994869232177734375e-05
-7.092952728271484375e-05
-1.001358032226562500e-05
-3.194808959960937500e-05
-2.980232238769531250e-05
-4.911422729492187500e-05
-4.994869232177734375e-05
-5.877017974853515625e-05
-6.806850433349609375e-05
-4.684925079345703125e-05
-3.671646118164062500e-05
-6.282329559326171875e-05
-1.068115234375000000e-04
-5.388259887695312500e-05
-1.239776611328125000e-04
-1.027584075927734375e-04
-6.806850433349609375e-05
-8.833408355712890625e-05
-1.502037048339843750e-05
-4.303455352783203125e-05
-3.790855407714843750e-05
-2.348423004150390625e-05
-5.388259887695312500e-05
-1.006126403808593750e-04
-7.557868957519531250e-05
-5.161762237548828125e-05
-5.304813385009765625e-05
-4.589557647705078125e-05
-3.623962402343750000e-05
-4.112720489501953125e-05
-3.480911254882812500e-05
-8.440017700195312500e-05
-6.222724914550781250e-05
-5.221366882324218750e-05
-5.030632019042968750e-05
-1.430511474609375000e-05
-2.431869506835937500e-05
-2.324581146240234375e-05
-7.784366607666015625e-05
-9.775161743164062500e-05
-1.343488693237304688e-04
-1.055002212524414062e-04
-1.019239425659179688e-04
-9.274482727050781250e-05
-4.518032073974609375e-05
-9.775161743164062500e-05
-6.890296936035156250e-05
-1.076459884643554688e-04
-1.021623611450195312e-04
-8.869171142578125000e-05
-5.531311035156250000e-05
-1.192092895507812500e-05
-4.482269287109375000e-05
-5.960464477539062500e-05
-7.510185241699218750e-05
-2.813339233398437500e-05
-1.024007797241210938e-04
-4.863739013671875000e-05
-5.507469177246093750e-05
-1.621246337890625000e-05
-3.063678741455078125e-05
-7.307529449462890625e-05
-8.094310760498046875e-05
-9.787082672119140625e-05
-9.202957153320312500e-05
-1.200437545776367188e-04
-5.340576171875000000e-05
-4.291534423828125000e-05
-9.071826934814453125e-05
-9.775161743164062500e-05
-8.606910705566406250e-05
-1.058578491210937500e-04
-9.524822235107421875e-05
-8.153915405273437500e-05
-7.462501525878906250e-05
-3.814697265625000000e-05
-3.933906555175781250e-05
-2.229213714599609375e-05
-5.817413330078125000e-05
-6.949901580810546875e-05
-6.306171417236328125e-05
-9.167194366455078125e-05
-9.298324584960937500e-05
3.671646118164062500e-05
-2.777576446533203125e-05
-8.118152618408203125e-05
-1.084804534912109375e-05
-5.960464477539062500e-05
-5.042552947998046875e-05
-9.298324584960937500e-05
-8.440017700195312500e-05
-5.936622619628906250e-05
-6.270408630371093750e-05
-2.026557922363281250e-05
-7.903575897216796875e-05
-5.114078521728515625e-05
-3.087520599365234375e-05
-6.723403930664062500e-05
-8.535385131835937500e-05
-7.832050323486328125e-05
-7.629394531250000000e-05
-5.018711090087890625e-05
-5.936622619628906250e-05
-7.045269012451171875e-05
-8.296966552734375000e-05
-1.109838485717773438e-04
-8.463859558105468750e-05
-7.069110870361328125e-05
-4.231929779052734375e-05
-3.719329833984375000e-05
-3.159046173095703125e-05
-1.115798950195312500e-04
-1.331567764282226562e-04
-7.736682891845703125e-05
-8.988380432128906250e-05
-5.900859832763671875e-05
-4.494190216064453125e-05
-7.152557373046875000e-05
-5.221366882324218750e-05
-1.292228698730468750e-04
-1.021623611450195312e-04
-7.462501525878906250e-05
-8.249282836914062500e-05
-6.783008575439453125e-05
-7.939338684082031250e-05
-2.646446228027343750e-05
-5.555152893066406250e-05
-9.346008300781250000e-05
-5.125999450683593750e-05
-4.601478576660156250e-05
-3.421306610107421875e-05
-3.302097320556640625e-05
-2.193450927734375000e-05
-4.005432128906250000e-05
-1.394748687744140625e-05
-1.549720764160156250e-05
-7.140636444091796875e-05
-9.310245513916015625e-05
-7.736682891845703125e-05
-6.246566772460937500e-05
-7.212162017822265625e-05
-1.388788223266601562e-04
-1.355409622192382812e-04
-7.736682891845703125e-05
-6.163120269775390625e-05
-8.428096771240234375e-05
-4.982948303222656250e-05
-6.616115570068359375e-05
-7.319450378417968750e-05
-5.614757537841796875e-05
-9.751319885253906250e-05
-6.604194641113281250e-05
-7.200241088867187500e-05
-8.797645568847656250e-05
-7.927417755126953125e-05
-5.376338958740234375e-05
-5.638599395751953125e-05
-5.078315734863281250e-05
-8.809566497802734375e-05
-4.029273986816406250e-05
-6.186962127685546875e-05
-4.208087921142578125e-05
-6.234645843505859375e-05
-6.294250488281250000e-05
-3.051757812500000000e-05
-1.219511032104492188e-04
-8.547306060791015625e-05
-4.577636718750000000e-05
-7.331371307373046875e-05
-8.440017700195312500e-05
-6.389617919921875000e-05
-5.424022674560546875e-05
-5.519390106201171875e-05
-7.355213165283203125e-05
-1.012086868286132812e-04
-1.125335693359375000e-04
-1.076459884643554688e-04
-1.162290573120117188e-04
-1.015663146972656250e-04
-7.200241088867187500e-05
-7.438659667968750000e-05
-9.071826934814453125e-05
-1.193284988403320312e-04
-8.785724639892578125e-05
-7.581710815429687500e-05
-2.956390380859375000e-05
-4.041194915771484375e-05
-8.499622344970703125e-05
-8.630752563476562500e-05
-1.021623611450195312e-04
-7.927417755126953125e-05
-8.404254913330078125e-05
-9.691715240478515625e-05
-5.829334259033203125e-05
-9.965896606445312500e-05
-9.191036224365234375e-05
-9.977817535400390625e-05
-8.165836334228515625e-05
-5.698204040527343750e-05
-8.606910705566406250e-05
-7.283687591552734375e-05
-1.164674758911132812e-04
-1.083612442016601562e-04
-6.985664367675781250e-05
-9.322166442871093750e-05
-7.903575897216796875e-05
-8.428096771240234375e-05
-7.474422454833984375e-05
-8.225440979003906250e-05
-1.070499420166015625e-04
-1.200437545776367188e-04
-1.015663146972656250e-04
-9.047985076904296875e-05
-1.024007797241210938e-04
-2.837181091308593750e-05
-6.556510925292968750e-05
-7.581710815429687500e-05
-4.053115844726562500e-05
-4.899501800537109375e-05
-4.935264587402343750e-05
-6.437301635742187500e-05
-4.470348358154296875e-05
-5.805492401123046875e-05
-4.756450653076171875e-05
-8.511543273925781250e-05
-4.398822784423828125e-05
-1.609325408935546875e-05
-5.519390106201171875e-05
-7.772445678710937500e-05
-7.295608520507812500e-05
-6.175041198730468750e-05
-6.389617919921875000e-05
-5.626678466796875000e-05
-6.735324859619140625e-05
-5.495548248291015625e-05
-7.176399230957031250e-05
-7.104873657226562500e-05
-4.148483276367187500e-05
-6.759166717529296875e-05
-6.616115570068359375e-05
-5.090236663818359375e-05
-8.296966552734375000e-05
-6.139278411865234375e-05
-6.306171417236328125e-05
-6.520748138427734375e-05
-5.149841308593750000e-05
-3.874301910400390625e-05
-5.924701690673828125e-05
-4.947185516357421875e-05
-5.078315734863281250e-05
-6.031990051269531250e-05
-3.218650817871093750e-05
-4.768371582031250000e-05
-9.393692016601562500e-05
-8.559226989746093750e-05
-7.009506225585937500e-05
-8.547306060791015625e-05
-6.330013275146484375e-05
-9.334087371826171875e-05
-5.578994750976562500e-05
-2.515316009521484375e-05
-1.144409179687500000e-05
-6.520748138427734375e-05
-1.044273376464843750e-04
-4.458427429199218750e-05
-6.556510925292968750e-05
-9.453296661376953125e-05
-9.179115295410156250e-05
-5.996227264404296875e-05
-7.605552673339843750e-05
-7.379055023193359375e-05
-6.830692291259765625e-05
-5.865097045898437500e-05
-8.654594421386718750e-05
-1.031160354614257812e-04
-6.461143493652343750e-05
-1.089572906494140625e-04
-6.997585296630859375e-05
-7.331371307373046875e-05
-8.594989776611328125e-05
-1.014471054077148438e-04
-9.584426879882812500e-05
-5.424022674560546875e-05
-6.163120269775390625e-05
-4.637241363525390625e-05
-9.191036224365234375e-05
-3.588199615478515625e-05
-6.806850433349609375e-05
-2.920627593994140625e-05
-4.470348358154296875e-05
-4.279613494873046875e-05
-2.920627593994140625e-05
-7.498264312744140625e-05
-6.842613220214843750e-05
-5.173683166503906250e-05
-1.020431518554687500e-04
-7.283687591552734375e-05
-5.531311035156250000e-05
-6.854534149169921875e-05
-5.900859832763671875e-05
-4.243850708007812500e-05
-4.589557647705078125e-05
-3.719329833984375000e-05
-9.632110595703125000e-05
-9.489059448242187500e-05
-6.747245788574218750e-05
-5.829334259033203125e-05
-4.386901855468750000e-05
-5.865097045898437500e-05
-5.042552947998046875e-05
-9.059906005859375000e-05
-7.617473602294921875e-05
-9.858608245849609375e-05
-1.020431518554687500e-04
-8.714199066162109375e-05
-8.344650268554687500e-05
-8.928775787353515625e-05
-2.944469451904296875e-05
-7.319450378417968750e-05
-8.523464202880859375e-05
-7.188320159912109375e-05
-8.475780487060546875e-05
-1.181364059448242188e-04
-8.964538574218750000e-05
-9.632110595703125000e-05
-8.809566497802734375e-05
-1.306533813476562500e-04
-9.894371032714843750e-05
-1.192092895507812500e-06
-1.021623611450195312e-04
-1.029968261718750000e-04
-1.314878463745117188e-04
-1.184940338134765625e-04
-1.070499420166015625e-04
-9.799003601074218750e-05
-9.906291961669921875e-05
-1.395940780639648438e-04
-1.224279403686523438e-04
-9.441375732421875000e-05
-1.143217086791992188e-04
-1.144409179687500000e-04
-1.571178436279296875e-04
-1.422166824340820312e-04
-1.250505447387695312e-04
-8.273124694824218750e-05
-8.296966552734375000e-05
-7.665157318115234375e-05
-8.130073547363281250e-05
-9.071826934814453125e-05
-8.523464202880859375e-05
-1.446008682250976562e-04
-3.254413604736328125e-05
-1.087188720703125000e-04
-2.884864807128906250e-05
-4.374980926513671875e-05
-5.376338958740234375e-05
-3.039836883544921875e-05
-2.658367156982421875e-05
-6.580352783203125000e-05
-3.921985626220703125e-05
-4.112720489501953125e-05
-1.151561737060546875e-04
-6.115436553955078125e-05
-6.234645843505859375e-05
-3.445148468017578125e-05
-3.921985626220703125e-05
-9.787082672119140625e-05
-1.112222671508789062e-04
-1.041889190673828125e-04
-9.155273437500000000e-05
-5.543231964111328125e-05
-1.919269561767578125e-05
-3.874301910400390625e-05
-1.572370529174804688e-04
-8.857250213623046875e-05
-1.062154769897460938e-04
-2.980232238769531250e-05
-2.777576446533203125e-05
-1.125335693359375000e-04
-6.520748138427734375e-05
-1.085996627807617188e-04
-3.612041473388671875e-05
-9.107589721679687500e-05
-7.534027099609375000e-05
-6.818771362304687500e-05
-5.924701690673828125e-05
-5.936622619628906250e-05
-9.334087371826171875e-05
-6.496906280517578125e-05
-6.330013275146484375e-05
-7.593631744384765625e-05
-6.890296936035156250e-05
-4.589557647705078125e-05
-7.724761962890625000e-05
-9.489059448242187500e-05
-8.916854858398437500e-05
-1.097917556762695312e-04
-9.858608245849609375e-05
-7.653236389160156250e-05
-1.000165939331054688e-04
-9.500980377197265625e-05
-8.308887481689453125e-05
-7.462501525878906250e-05
-1.060962677001953125e-04
-5.245208740234375000e-05
-5.638599395751953125e-05
-4.768371582031250000e-05
-3.743171691894531250e-05
-4.279613494873046875e-05
-2.396106719970703125e-05
-6.783008575439453125e-05
-2.992153167724609375e-05
-3.373622894287109375e-05
-6.437301635742187500e-05
-5.328655242919921875e-05
-7.808208465576171875e-05
-8.273124694824218750e-05
-6.127357482910156250e-05
-9.417533874511718750e-06
-6.282329559326171875e-05
-5.578994750976562500e-05
-5.936622619628906250e-05
-1.021623611450195312e-04
-5.733966827392578125e-05
-8.583068847656250000e-05
-3.671646118164062500e-05
-8.952617645263671875e-05
-7.474422454833984375e-05
-5.292892456054687500e-05
-7.426738739013671875e-05
-5.841255187988281250e-05
-6.282329559326171875e-05
-2.288818359375000000e-05
-3.194808959960937500e-05
1.358985900878906250e-05
2.312660217285156250e-05
4.661083221435546875e-05
5.316734313964843750e-05
6.794929504394531250e-05
4.386901855468750000e-05
2.264976501464843750e-05
-4.875659942626953125e-05
-7.116794586181640625e-05
-3.790855407714843750e-05
-1.585483551025390625e-05
-4.649162292480468750e-05
-9.691715240478515625e-05
-3.898143768310546875e-05
-4.613399505615234375e-05
-3.051757812500000000e-05
-2.062320709228515625e-05
-5.030632019042968750e-05
-3.445148468017578125e-05
-5.245208740234375000e-05
-7.522106170654296875e-05
-7.712841033935546875e-05
-2.789497375488281250e-05
-6.735324859619140625e-05
-6.246566772460937500e-05
-2.706050872802734375e-05
-9.012222290039062500e-05
-5.102157592773437500e-05
-4.351139068603515625e-05
-2.014636993408203125e-05
-4.339218139648437500e-05
-4.088878631591796875e-05
-4.565715789794921875e-05
-5.233287811279296875e-05
-6.544589996337890625e-05
-5.090236663818359375e-05
-4.625320434570312500e-05
-8.893013000488281250e-05
-5.626678466796875000e-05
-4.363059997558593750e-05
-3.635883331298828125e-05
-6.854534149169921875e-05
-4.088878631591796875e-05
-2.765655517578125000e-05
-1.204013824462890625e-05
-3.230571746826171875e-05
-6.341934204101562500e-05
-6.723403930664062500e-05
-4.637241363525390625e-05
-3.778934478759765625e-05
-7.748603820800781250e-05
-7.975101470947265625e-05
-9.226799011230468750e-05
-5.865097045898437500e-05
-4.589557647705078125e-05
-8.535385131835937500e-05
-3.981590270996093750e-05
-3.147125244140625000e-05
-6.151199340820312500e-05
-2.241134643554687500e-05
-3.254413604736328125e-05
-4.327297210693359375e-05
-6.914138793945312500e-06
-2.622604370117187500e-05
-6.508827209472656250e-05
-2.431869506835937500e-05
-5.960464477539062500e-05
-9.953975677490234375e-05
-6.294250488281250000e-05
-6.914138793945312500e-05
-4.661083221435546875e-05
-3.302097320556640625e-05
-6.282329559326171875e-05
-7.557868957519531250e-05
-6.270408630371093750e-05
-3.898143768310546875e-05
-6.902217864990234375e-05
-8.893013000488281250e-05
-7.534027099609375000e-05
-7.379055023193359375e-05
-6.949901580810546875e-05
-7.367134094238281250e-05
-6.186962127685546875e-05
-5.948543548583984375e-05
-8.130073547363281250e-05
-1.441240310668945312e-04
-8.547306060791015625e-05
-8.761882781982421875e-05
-1.211166381835937500e-04
-1.549720764160156250e-04
-1.035928726196289062e-04
-5.996227264404296875e-05
-6.628036499023437500e-05
-5.853176116943359375e-05
-8.678436279296875000e-05
-6.592273712158203125e-05
-7.522106170654296875e-05
-5.996227264404296875e-05
-5.769729614257812500e-05
-3.159046173095703125e-05
-2.586841583251953125e-05
-1.919269561767578125e-05
-5.292892456054687500e-05
-3.743171691894531250e-05
-7.390975952148437500e-06
-1.192092895507812500e-05
-3.278255462646484375e-05
-2.980232238769531250e-05
-1.311302185058593750e-05
-1.006126403808593750e-04
-7.569789886474609375e-05
-1.024007797241210938e-04
-1.279115676879882812e-04
-1.437664031982421875e-04
-2.030134201049804688e-04
-1.796483993530273438e-04
-1.718997955322265625e-04
-1.305341720581054688e-04
-1.978874206542968750e-04
-1.355409622192382812e-04
-9.858608245849609375e-05
-8.714199066162109375e-05
-6.473064422607421875e-05
-4.363059997558593750e-05
-3.516674041748046875e-05
1.956224441528320312e-04
2.826452255249023438e-04
2.375841140747070312e-04
2.789497375488281250e-05
1.020431518554687500e-04
3.968477249145507812e-04
4.098415374755859375e-04
2.861022949218750000e-04
-1.132488250732421875e-05
2.646446228027343750e-05
1.358985900878906250e-05
-2.539157867431640625e-05
-1.335144042968750000e-04
-8.416175842285156250e-05
-9.477138519287109375e-05
-1.164674758911132812e-04
-6.854534149169921875e-05
-1.257658004760742188e-04
-1.122951507568359375e-04
-1.145601272583007812e-04
-1.056194305419921875e-04
-1.009702682495117188e-04
-1.022815704345703125e-04
-1.227855682373046875e-04
-7.164478302001953125e-05
-7.927417755126953125e-05
-4.982948303222656250e-05
1.835823059082031250e-05
2.384185791015625000e-07
8.344650268554687500e-07
-1.060962677001953125e-05
2.241134643554687500e-05
-6.437301635742187500e-06
-2.491474151611328125e-05
-5.066394805908203125e-05
-9.799003601074218750e-05
-2.217292785644531250e-05
-4.005432128906250000e-05
-6.830692291259765625e-05
-6.139278411865234375e-05
-9.000301361083984375e-05
-9.131431579589843750e-05
-7.367134094238281250e-05
-1.189708709716796875e-04
-1.091957092285156250e-04
-1.190900802612304688e-04
-1.689195632934570312e-04
-1.455545425415039062e-04
-1.927614212036132812e-04
-1.934766769409179688e-04
-1.671314239501953125e-04
-1.344680786132812500e-04
-1.747608184814453125e-04
-1.597404479980468750e-04
-1.580715179443359375e-04
-1.293420791625976562e-04
-6.949901580810546875e-05
-8.094310760498046875e-05
-6.854534149169921875e-05
-4.243850708007812500e-05
-3.123283386230468750e-05
-4.947185516357421875e-05
-3.135204315185546875e-05
-4.708766937255859375e-05
-3.874301910400390625e-05
-3.314018249511718750e-05
-1.704692840576171875e-05
-1.227855682373046875e-05
-1.308917999267578125e-04
-6.496906280517578125e-05
-1.056194305419921875e-04
-1.517534255981445312e-04
-1.540184020996093750e-04
-1.621246337890625000e-04
-1.549720764160156250e-04
-1.415014266967773438e-04
-9.369850158691406250e-05
-1.407861709594726562e-04
-1.589059829711914062e-04
-1.333951950073242188e-04
-8.893013000488281250e-05
-7.569789886474609375e-05
-6.818771362304687500e-05
-7.283687591552734375e-05
-9.000301361083984375e-05
-1.044273376464843750e-04
-8.869171142578125000e-05
-4.875659942626953125e-05
-3.516674041748046875e-05
-2.574920654296875000e-05
-7.700920104980468750e-05
-4.434585571289062500e-05
-6.294250488281250000e-05
-9.500980377197265625e-05
-7.593631744384765625e-05
-9.858608245849609375e-05
-4.541873931884765625e-05
-5.722045898437500000e-05
-6.091594696044921875e-05
-6.842613220214843750e-05
-1.056194305419921875e-04
-9.286403656005859375e-05
-1.188516616821289062e-04
-1.149177551269531250e-04
-8.440017700195312500e-05
-9.977817535400390625e-05
-5.328655242919921875e-05
-8.332729339599609375e-05
-9.799003601074218750e-05
-1.578330993652343750e-04
-1.186132431030273438e-04
-8.440017700195312500e-05
-7.379055023193359375e-05
-1.158714294433593750e-04
-1.386404037475585938e-04
-6.091594696044921875e-05
-1.175403594970703125e-04
-1.158714294433593750e-04
-9.799003601074218750e-05
-6.771087646484375000e-05
-1.406669616699218750e-05
-6.687641143798828125e-05
-5.877017974853515625e-05
-7.319450378417968750e-05
-4.363059997558593750e-05
-9.560585021972656250e-05
-7.486343383789062500e-05
-9.310245513916015625e-05
-7.927417755126953125e-05
-5.853176116943359375e-05
-1.161098480224609375e-04
-7.498264312744140625e-05
-4.982948303222656250e-05
-9.679794311523437500e-05
-1.256465911865234375e-04
-1.143217086791992188e-04
-1.218318939208984375e-04
-9.810924530029296875e-05
-1.244544982910156250e-04
-8.213520050048828125e-05
-1.103878021240234375e-04
-9.667873382568359375e-05
-8.702278137207031250e-05
-1.058578491210937500e-04
-1.275539398193359375e-04
-1.028776168823242188e-04
-5.567073822021484375e-05
-8.213520050048828125e-05
-8.201599121093750000e-05
-1.363754272460937500e-04
-1.167058944702148438e-04
-1.189708709716796875e-04
-9.071826934814453125e-05
-8.773803710937500000e-05
-8.344650268554687500e-05
-8.404254913330078125e-05
-5.471706390380859375e-05
-5.114078521728515625e-05
-4.637241363525390625e-05
-6.055831909179687500e-05
-9.334087371826171875e-05
-1.206398010253906250e-04
-9.751319885253906250e-05
-7.200241088867187500e-05
-1.147985458374023438e-04
-1.057386398315429688e-04
-1.187324523925781250e-04
-9.918212890625000000e-05
-7.236003875732421875e-05
-6.902217864990234375e-05
-1.151561737060546875e-04
-1.038312911987304688e-04
-5.292892456054687500e-05
-6.568431854248046875e-05
-7.843971252441406250e-05
-7.677078247070312500e-05
-1.108646392822265625e-04
-6.484985351562500000e-05
-9.000301361083984375e-05
-8.118152618408203125e-05
-1.027584075927734375e-04
-9.930133819580078125e-05
-1.087188720703125000e-04
-1.255273818969726562e-04
-1.218318939208984375e-04
-1.018047332763671875e-04
