Time	Voltage
0.000125	0
0.00025	0
0.000375	0
0.0005	0
0.000625	0
0.00075	0
0.000875	0
0.001	0
0.001125	0
0.00125	0
0.001375	0
0.0015	0
0.001625	0
0.00175	0
0.001875	0
0.002	0
0.002125	0
0.00225	0
0.002375	0
0.0025	0
0.002625	0
0.00275	0
0.002875	0
0.003	0
0.003125	0
0.00325	0
0.003375	0
0.0035	0
0.003625	0
0.00375	0
0.003875	0
0.004	0
0.004125	0
0.00425	0
0.004375	0
0.0045	0
0.004625	0
0.00475	0
0.004875	0
0.005	0
0.005125	0
0.00525	0
0.005375	0
0.0055	0
0.005625	0
0.00575	0
0.005875	0
0.006	0
0.006125	0
0.00625	0
0.006375	0
0.0065	0
0.006625	0
0.00675	0
0.006875	0
0.007	0
0.007125	0
0.00725	0
0.007375	0
0.0075	0
0.007625	0
0.00775	0
0.007875	0
0.008	0
0.008125	0
0.00825	0
0.008375	0
0.0085	0
0.008625	0
0.00875	0
0.008875	0
0.009	0
0.009125	0
0.00925	0
0.009375	0
0.0095	0
0.009625	0
0.00975	0
0.009875	0
0.01	0
0.010125	0
0.01025	0
0.010375	0
0.0105	0
0.010625	0
0.01075	0
0.010875	0
0.011	0
0.011125	0
0.01125	0
0.011375	0
0.0115	0
0.011625	0
0.01175	0
0.011875	0
0.012	0
0.012125	0
0.01225	0
0.012375	0
0.0125	0
0.012625	0
0.01275	0
0.012875	0
0.013	0
0.013125	0
0.01325	0
0.013375	0
0.0135	0
0.013625	0
0.01375	0
0.013875	0
0.014	0
0.014125	0
0.01425	0
0.014375	0
0.0145	0
0.014625	0
0.01475	0
0.014875	0
0.015	0
0.015125	0
0.01525	0
0.015375	0
0.0155	0
0.015625	0
0.01575	0
0.015875	0
0.016	0
0.016125	0
0.01625	0
0.016375	0
0.0165	0
0.016625	0
0.01675	0
0.016875	0
0.017	0
0.017125	0
0.01725	0
0.017375	0
0.0175	0
0.017625	0
0.01775	0
0.017875	0
0.018	0
0.018125	0
0.01825	0
0.018375	0
0.0185	0
0.018625	0
0.01875	0
0.018875	0
0.019	0
0.019125	0
0.01925	0
0.019375	0
0.0195	0
0.019625	0
0.01975	0
0.019875	0
0.02	0
0.020125	0
0.02025	0
0.020375	0
0.0205	0
0.020625	0
0.02075	0
0.020875	0
0.021	0
0.021125	0
0.02125	0
0.021375	0
0.0215	0
0.021625	0
0.02175	0
0.021875	0
0.022	0
0.022125	0
0.02225	0
0.022375	0
0.0225	0
0.022625	0
0.02275	0
0.022875	0
0.023	0
0.023125	0
0.02325	0
0.023375	0
0.0235	0
0.023625	0
0.02375	0
0.023875	0
0.024	0
0.024125	0
0.02425	0
0.024375	0
0.0245	0
0.024625	0
0.02475	0
0.024875	0
0.025	0
0.025125	0
0.02525	0
0.025375	0
0.0255	0
0.025625	0
0.02575	0
0.025875	0
0.026	0
0.026125	0
0.02625	0
0.026375	0
0.0265	0
0.026625	0
0.02675	0
0.026875	0
0.027	0
0.027125	0
0.02725	0
0.027375	0
0.0275	0
0.027625	0
0.02775	0
0.027875	0
0.028	0
0.028125	0
0.02825	0
0.028375	0
0.0285	0
0.028625	0
0.02875	0
0.028875	0
0.029	0
0.029125	0
0.02925	0
0.029375	0
0.0295	0
0.029625	0
0.02975	0
0.029875	0
0.03	0
0.030125	0
0.03025	0
0.030375	0
0.0305	0
0.030625	0
0.03075	0
0.030875	0
0.031	-1.19209289550781e-07
0.031125	1.19209289550781e-07
0.03125	-1.19209289550781e-07
0.031375	1.19209289550781e-07
0.0315	-2.38418579101562e-07
0.031625	2.38418579101562e-07
0.03175	-3.57627868652344e-07
0.031875	3.57627868652344e-07
0.032	-4.76837158203125e-07
0.032125	5.96046447753906e-07
0.03225	-7.15255737304688e-07
0.032375	8.34465026855469e-07
0.0325	-1.31130218505859e-06
0.032625	2.38418579101562e-06
0.03275	-9.89437103271484e-06
0.032875	-5.35249710083008e-05
0.033	-6.68764114379883e-05
0.033125	-8.27312469482422e-05
0.03325	-0.000100135803222656
0.033375	-0.000113606452941895
0.0335	-0.000127673149108887
0.033625	-0.000143051147460938
0.03375	-0.000160336494445801
0.033875	-0.000175118446350098
0.034	-0.000190496444702148
0.034125	-0.00020289421081543
0.03425	-0.000224471092224121
0.034375	-0.000231385231018066
0.0345	-0.000266194343566895
0.034625	-0.000310778617858887
0.03475	-0.000322580337524414
0.034875	-0.000331282615661621
0.035	-0.000356316566467285
0.035125	-0.000370621681213379
0.03525	-0.000382900238037109
0.035375	-0.000413060188293457
0.0355	-0.000416755676269531
0.035625	-0.000432372093200684
0.03575	-0.000456094741821289
0.035875	-0.000465273857116699
0.036	-0.000487565994262695
0.036125	-0.00050652027130127
0.03625	-0.000530719757080078
0.036375	-0.000532031059265137
0.0365	-0.000545620918273926
0.036625	-0.000626087188720703
0.03675	-0.000677108764648438
0.036875	-0.000692605972290039
0.037	-0.000697493553161621
0.037125	-0.000713467597961426
0.03725	-0.000746369361877441
0.037375	-0.000754833221435547
0.0375	-0.000770330429077148
0.037625	-0.000793576240539551
0.03775	-0.000832200050354004
0.037875	-0.000856280326843262
0.038	-0.000861525535583496
0.038125	-0.00087440013885498
0.03825	-0.000873446464538574
0.038375	-0.000924825668334961
0.0385	-0.000948667526245117
0.038625	-0.000986218452453613
0.03875	-0.00108194351196289
0.038875	-0.0010758638381958
0.039	-0.00112771987915039
0.039125	-0.00115704536437988
0.03925	-0.00115966796875
0.039375	-0.00117731094360352
0.0395	-0.00119674205780029
0.039625	-0.00123083591461182
0.03975	-0.00123262405395508
0.039875	-0.00125217437744141
0.04	-0.00128579139709473
0.040125	-0.00130534172058105
0.04025	-0.00132811069488525
0.040375	-0.00138449668884277
0.0405	-0.0013582706451416
0.040625	-0.00138258934020996
0.04075	-0.00154256820678711
0.040875	-0.00158143043518066
0.041	-0.00156557559967041
0.041125	-0.00163483619689941
0.04125	-0.00165414810180664
0.041375	-0.00165987014770508
0.0415	-0.00166988372802734
0.041625	-0.0017162561416626
0.04175	-0.00172483921051025
0.041875	-0.00174057483673096
0.042	-0.00173604488372803
0.042125	-0.00178301334381104
0.04225	-0.00181055068969727
0.042375	-0.00182712078094482
0.0425	-0.00186288356781006
0.042625	-0.00180709362030029
0.04275	-0.00211560726165771
0.042875	-0.00226724147796631
0.043	-0.00223112106323242
0.043125	-0.00232064723968506
0.04325	-0.00229465961456299
0.043375	-0.0022808313369751
0.0435	-0.00227046012878418
0.043625	-0.00229215621948242
0.04375	-0.00229263305664062
0.043875	-0.00226521492004395
0.044	-0.00225138664245605
0.044125	-0.00223815441131592
0.04425	-0.00224721431732178
0.044375	-0.00225555896759033
0.0445	-0.00228738784790039
0.044625	-0.00223946571350098
0.04475	-0.00226724147796631
0.044875	-0.00242388248443604
0.045	-0.00236284732818604
0.045125	-0.00243175029754639
0.04525	-0.00241565704345703
0.045375	-0.00239872932434082
0.0455	-0.00239026546478271
0.045625	-0.00240528583526611
0.04575	-0.00245380401611328
0.045875	-0.00238561630249023
0.046	-0.00241553783416748
0.046125	-0.0023881196975708
0.04625	-0.00237107276916504
0.046375	-0.00235974788665771
0.0465	-0.00236606597900391
0.046625	-0.0023658275604248
0.04675	-0.0023493766784668
0.046875	-0.00247609615325928
0.047	-0.00249361991882324
0.047125	-0.00255119800567627
0.04725	-0.00250232219696045
0.047375	-0.00250768661499023
0.0475	-0.00253939628601074
0.047625	-0.00247597694396973
0.04775	-0.00251400470733643
0.047875	-0.00251531600952148
0.048	-0.00250351428985596
0.048125	-0.00253760814666748
0.04825	-0.00252127647399902
0.048375	-0.00247871875762939
0.0485	-0.00249004364013672
0.048625	-0.0024714469909668
0.04875	-0.00246942043304443
0.048875	-0.00258147716522217
0.049	-0.00271046161651611
0.049125	-0.0026317834854126
0.04925	-0.00263369083404541
0.049375	-0.00267493724822998
0.0495	-0.00267136096954346
0.049625	-0.00270426273345947
0.04975	-0.00265586376190186
0.049875	-0.00268065929412842
0.05	-0.00266623497009277
0.050125	-0.00266039371490479
0.05025	-0.00264620780944824
0.050375	-0.00260162353515625
0.0505	-0.00262057781219482
0.050625	-0.00259506702423096
0.05075	-0.00266909599304199
0.050875	-0.00264906883239746
0.051	-0.00268328189849854
0.051125	-0.00268590450286865
0.05125	-0.00268387794494629
0.051375	-0.00266909599304199
0.0515	-0.0026397705078125
0.051625	-0.00268948078155518
0.05175	-0.00263333320617676
0.051875	-0.00266110897064209
0.052	-0.0026850700378418
0.052125	-0.0026930570602417
0.05225	-0.00260818004608154
0.052375	-0.00264608860015869
0.0525	-0.00266754627227783
0.052625	-0.00263488292694092
0.05275	-0.00264132022857666
0.052875	-0.00258374214172363
0.053	-0.00278687477111816
0.053125	-0.00278282165527344
0.05325	-0.00277960300445557
0.053375	-0.00281774997711182
0.0535	-0.00278520584106445
0.053625	-0.00273346900939941
0.05375	-0.00275242328643799
0.053875	-0.00279808044433594
0.054	-0.0027773380279541
0.054125	-0.00271987915039062
0.05425	-0.00273013114929199
0.054375	-0.00276517868041992
0.0545	-0.00272810459136963
0.054625	-0.00271761417388916
0.05475	-0.00267660617828369
0.054875	-0.00275909900665283
0.055	-0.00278127193450928
0.055125	-0.00289070606231689
0.05525	-0.00291085243225098
0.055375	-0.00293171405792236
0.0555	-0.0029219388961792
0.055625	-0.00284004211425781
0.05575	-0.00290548801422119
0.055875	-0.00284552574157715
0.056	-0.00286316871643066
0.056125	-0.00284075736999512
0.05625	-0.00283503532409668
0.056375	-0.00283694267272949
0.0565	-0.00282490253448486
0.056625	-0.00285232067108154
0.05675	-0.00280046463012695
0.056875	-0.00278306007385254
0.057	-0.00278317928314209
0.057125	-0.00297248363494873
0.05725	-0.00299370288848877
0.057375	-0.0029836893081665
0.0575	-0.00296664237976074
0.057625	-0.00298798084259033
0.05775	-0.00295543670654297
0.057875	-0.00298404693603516
0.058	-0.00296998023986816
0.058125	-0.0029902458190918
0.05825	-0.00296008586883545
0.058375	-0.00295817852020264
0.0585	-0.00298428535461426
0.058625	-0.0028526782989502
0.05875	-0.00291705131530762
0.058875	-0.00296735763549805
0.059	-0.00288069248199463
0.059125	-0.00293314456939697
0.05925	-0.00314676761627197
0.059375	-0.00311315059661865
0.0595	-0.00309932231903076
0.059625	-0.00309896469116211
0.05975	-0.00303113460540771
0.059875	-0.00304698944091797
0.06	-0.00302004814147949
0.060125	-0.00297367572784424
0.06025	-0.00306379795074463
0.060375	-0.00302493572235107
0.0605	-0.00301170349121094
0.060625	-0.00296962261199951
0.06075	-0.00301682949066162
0.060875	-0.00296294689178467
0.061	-0.00300085544586182
0.061125	-0.00295913219451904
0.06125	-0.00306856632232666
0.061375	-0.00311934947967529
0.0615	-0.00311625003814697
0.061625	-0.00308406352996826
0.06175	-0.00305271148681641
0.061875	-0.00307214260101318
0.062	-0.00306165218353271
0.062125	-0.00301253795623779
0.06225	-0.00300443172454834
0.062375	-0.00298869609832764
0.0625	-0.0029749870300293
0.062625	-0.00298225879669189
0.06275	-0.00301074981689453
0.062875	-0.00296986103057861
0.063	-0.00296390056610107
0.063125	-0.00296914577484131
0.06325	-0.00303733348846436
0.063375	-0.00318288803100586
0.0635	-0.00316262245178223
0.063625	-0.00315487384796143
0.06375	-0.00316190719604492
0.063875	-0.00311791896820068
0.064	-0.00312507152557373
0.064125	-0.00311720371246338
0.06425	-0.0031120777130127
0.064375	-0.0030968189239502
0.0645	-0.00312340259552002
0.064625	-0.00312209129333496
0.06475	-0.00304293632507324
0.064875	-0.00306487083435059
0.065	-0.00304639339447021
0.065125	-0.00302934646606445
0.06525	-0.00310826301574707
0.065375	-0.00329446792602539
0.0655	-0.00322043895721436
0.065625	-0.00323128700256348
0.06575	-0.00317990779876709
0.065875	-0.00323927402496338
0.066	-0.00320613384246826
0.066125	-0.00316286087036133
0.06625	-0.00320017337799072
0.066375	-0.0031898021697998
0.0665	-0.0031578540802002
0.066625	-0.00316011905670166
0.06675	-0.0031120777130127
0.066875	-0.00314533710479736
0.067	-0.00311195850372314
0.067125	-0.00309669971466064
0.06725	-0.00307786464691162
0.067375	-0.0032966136932373
0.0675	-0.00328624248504639
0.067625	-0.00322473049163818
0.06775	-0.00325894355773926
0.067875	-0.0032728910446167
0.068	-0.0032273530960083
0.068125	-0.00322222709655762
0.06825	-0.00323677062988281
0.068375	-0.00319314002990723
0.0685	-0.00320184230804443
0.068625	-0.00317072868347168
0.06875	-0.0031895637512207
0.068875	-0.00319862365722656
0.069	-0.00317072868347168
0.069125	-0.00319790840148926
0.06925	-0.00315415859222412
0.069375	-0.00322794914245605
0.0695	-0.00331377983093262
0.069625	-0.00325894355773926
0.06975	-0.0033489465713501
0.069875	-0.00329244136810303
0.07	-0.00331974029541016
0.070125	-0.00327277183532715
0.07025	-0.00328028202056885
0.070375	-0.00325429439544678
0.0705	-0.00327420234680176
0.070625	-0.00321364402770996
0.07075	-0.00326430797576904
0.070875	-0.00325727462768555
0.071	-0.00320184230804443
0.071125	-0.0032341480255127
0.07125	-0.0032268762588501
0.071375	-0.00320577621459961
0.0715	-0.0033644437789917
0.071625	-0.00335681438446045
0.07175	-0.00338077545166016
0.071875	-0.0034172534942627
0.072	-0.0033879280090332
0.072125	-0.00335443019866943
0.07225	-0.00337362289428711
0.072375	-0.00331103801727295
0.0725	-0.00328671932220459
0.072625	-0.00332093238830566
0.07275	-0.00334429740905762
0.072875	-0.00330448150634766
0.073	-0.00331544876098633
0.073125	-0.00330507755279541
0.07325	-0.00335013866424561
0.073375	-0.00329649448394775
0.0735	-0.0033564567565918
0.073625	-0.00346875190734863
0.07375	-0.00345182418823242
0.073875	-0.00348329544067383
0.074	-0.00342690944671631
0.074125	-0.00337851047515869
0.07425	-0.00346243381500244
0.074375	-0.0034327507019043
0.0745	-0.00342833995819092
0.074625	-0.00341677665710449
0.07475	-0.00336647033691406
0.074875	-0.00332403182983398
0.075	-0.00334036350250244
0.075125	-0.0033799409866333
0.07525	-0.00332224369049072
0.075375	-0.00329530239105225
0.0755	-0.00332510471343994
0.075625	-0.00351369380950928
0.07575	-0.00347638130187988
0.075875	-0.00348269939422607
0.076	-0.00345945358276367
0.076125	-0.0034644603729248
0.07625	-0.00345921516418457
0.076375	-0.0034792423248291
0.0765	-0.00348818302154541
0.076625	-0.00348830223083496
0.07675	-0.00341141223907471
0.076875	-0.00340890884399414
0.077	-0.00345385074615479
0.077125	-0.00341176986694336
0.07725	-0.0033576488494873
0.077375	-0.00336849689483643
0.0775	-0.00329530239105225
0.077625	-0.00347709655761719
0.07775	-0.00354945659637451
0.077875	-0.00349700450897217
0.078	-0.0034945011138916
0.078125	-0.00350081920623779
0.07825	-0.00350654125213623
0.078375	-0.00348067283630371
0.0785	-0.00345396995544434
0.078625	-0.00344586372375488
0.07875	-0.00342690944671631
0.078875	-0.00343501567840576
0.079	-0.00343489646911621
0.079125	-0.003409743309021
0.07925	-0.00337135791778564
0.079375	-0.00340390205383301
0.0795	-0.00334846973419189
0.079625	-0.00348842144012451
0.07975	-0.00362253189086914
0.079875	-0.00353884696960449
0.08	-0.00360524654388428
0.080125	-0.00351047515869141
0.08025	-0.00355255603790283
0.080375	-0.00352287292480469
0.0805	-0.00346636772155762
0.080625	-0.00349998474121094
0.08075	-0.00350916385650635
0.080875	-0.00348293781280518
0.081	-0.00348186492919922
0.081125	-0.0034489631652832
0.08125	-0.00347065925598145
0.081375	-0.0035170316696167
0.0815	-0.00345480442047119
0.081625	-0.00342512130737305
0.08175	-0.00358450412750244
0.081875	-0.00361299514770508
0.082	-0.00362205505371094
0.082125	-0.0035330057144165
0.08225	-0.00357019901275635
0.082375	-0.00356292724609375
0.0825	-0.00355660915374756
0.082625	-0.00357496738433838
0.08275	-0.00354576110839844
0.082875	-0.00354290008544922
0.083	-0.00353479385375977
0.083125	-0.00348734855651855
0.08325	-0.00344312191009521
0.083375	-0.00347352027893066
0.0835	-0.00348711013793945
0.083625	-0.00351142883300781
0.08375	-0.003448486328125
0.083875	-0.00345861911773682
0.084	-0.00342404842376709
0.084125	-0.00346887111663818
0.08425	-0.00346457958221436
0.084375	-0.00345146656036377
0.0845	-0.003456711769104
0.084625	-0.00337481498718262
0.08475	-0.00337338447570801
0.084875	-0.00335633754730225
0.085	-0.00333404541015625
0.085125	-0.00335586071014404
0.08525	-0.00336205959320068
0.085375	-0.00330841541290283
0.0855	-0.0033574104309082
0.085625	-0.00334596633911133
0.08575	-0.00326204299926758
0.085875	-0.00331008434295654
0.086	-0.0033416748046875
0.086125	-0.00332510471343994
0.08625	-0.00335967540740967
0.086375	-0.00326800346374512
0.0865	-0.00328648090362549
0.086625	-0.00327980518341064
0.08675	-0.0032660961151123
0.086875	-0.00323939323425293
0.087	-0.0032268762588501
0.087125	-0.00325310230255127
0.08725	-0.00317108631134033
0.087375	-0.00316190719604492
0.0875	-0.00317573547363281
0.087625	-0.00314080715179443
0.08775	-0.00313198566436768
0.087875	-0.00319290161132812
0.088	-0.00313901901245117
0.088125	-0.00308382511138916
0.08825	-0.00308096408843994
0.088375	-0.00310778617858887
0.0885	-0.0031207799911499
0.088625	-0.00305795669555664
0.08875	-0.00310862064361572
0.088875	-0.00303554534912109
0.089	-0.00305092334747314
0.089125	-0.00304734706878662
0.08925	-0.0029977560043335
0.089375	-0.0029832124710083
0.0895	-0.0030139684677124
0.089625	-0.00299859046936035
0.08975	-0.00296962261199951
0.089875	-0.00301527976989746
0.09	-0.00296807289123535
0.090125	-0.00296700000762939
0.09025	-0.00296735763549805
0.090375	-0.00296211242675781
0.0905	-0.00292372703552246
0.090625	-0.00296711921691895
0.09075	-0.00291097164154053
0.090875	-0.00293099880218506
0.091	-0.00289392471313477
0.091125	-0.00285220146179199
0.09125	-0.00287508964538574
0.091375	-0.00288546085357666
0.0915	-0.00285148620605469
0.091625	-0.00290358066558838
0.09175	-0.00290405750274658
0.091875	-0.00287067890167236
0.092	-0.00289392471313477
0.092125	-0.00283169746398926
0.09225	-0.00286281108856201
0.092375	-0.00282490253448486
0.0925	-0.00278604030609131
0.092625	-0.00282025337219238
0.09275	-0.00281620025634766
0.092875	-0.00277030467987061
0.093	-0.00272917747497559
0.093125	-0.00277161598205566
0.09325	-0.00277829170227051
0.093375	-0.00274598598480225
0.0935	-0.00275027751922607
0.093625	-0.00268030166625977
0.09375	-0.00271689891815186
0.093875	-0.00273072719573975
0.094	-0.00269556045532227
0.094125	-0.00271260738372803
0.09425	-0.00269758701324463
0.094375	-0.00266861915588379
0.0945	-0.00267279148101807
0.094625	-0.0026623010635376
0.09475	-0.00261890888214111
0.094875	-0.00264787673950195
0.095	-0.00264072418212891
0.095125	-0.00261545181274414
0.09525	-0.00258541107177734
0.095375	-0.00259602069854736
0.0955	-0.0025641918182373
0.095625	-0.00256121158599854
0.09575	-0.00256013870239258
0.095875	-0.00257134437561035
0.096	-0.00256335735321045
0.096125	-0.00256502628326416
0.09625	-0.00253927707672119
0.096375	-0.00253534317016602
0.0965	-0.00256657600402832
0.096625	-0.00251638889312744
0.09675	-0.00254309177398682
0.096875	-0.00250673294067383
0.097	-0.00254726409912109
0.097125	-0.00249886512756348
0.09725	-0.00249671936035156
0.097375	-0.0024876594543457
0.0975	-0.00251781940460205
0.097625	-0.00247955322265625
0.09775	-0.00244486331939697
0.097875	-0.00243306159973145
0.098	-0.00240695476531982
0.098125	-0.00238192081451416
0.09825	-0.00238800048828125
0.098375	-0.00242459774017334
0.0985	-0.0023956298828125
0.098625	-0.00240743160247803
0.09875	-0.00237774848937988
0.098875	-0.0023801326751709
0.099	-0.00236737728118896
0.099125	-0.0023728609085083
0.09925	-0.00236105918884277
0.099375	-0.00230276584625244
0.0995	-0.00236058235168457
0.099625	-0.00238323211669922
0.09975	-0.00227558612823486
0.099875	-0.0023036003112793
0.1	-0.00229012966156006
0.100125	-0.00232577323913574
0.10025	-0.00232183933258057
0.100375	-0.00226092338562012
0.1005	-0.00226449966430664
0.100625	-0.00224876403808594
0.10075	-0.0022742748260498
0.100875	-0.00226438045501709
0.101	-0.00219058990478516
0.101125	-0.00223493576049805
0.10125	-0.00228345394134521
0.101375	-0.0022430419921875
0.1015	-0.00216257572174072
0.101625	-0.00221240520477295
0.10175	-0.00214493274688721
0.101875	-0.00218665599822998
0.102	-0.00220131874084473
0.102125	-0.00217700004577637
0.10225	-0.00212514400482178
0.102375	-0.00216782093048096
0.1025	-0.00217819213867188
0.102625	-0.00212752819061279
0.10275	-0.00213384628295898
0.102875	-0.00212204456329346
0.103	-0.00215613842010498
0.103125	-0.00212371349334717
0.10325	-0.00210738182067871
0.103375	-0.00211203098297119
0.1035	-0.00213384628295898
0.103625	-0.00213956832885742
0.10375	-0.00211584568023682
0.103875	-0.00205004215240479
0.104	-0.00206434726715088
0.104125	-0.00209188461303711
0.10425	-0.00209128856658936
0.104375	-0.00210165977478027
0.1045	-0.00198888778686523
0.104625	-0.00202083587646484
0.10475	-0.00209951400756836
0.104875	-0.00202476978302002
0.105	-0.00197017192840576
0.105125	-0.00205516815185547
0.10525	-0.00194787979125977
0.105375	-0.00200760364532471
0.1055	-0.00199079513549805
0.105625	-0.00189507007598877
0.10575	-0.00193154811859131
0.105875	-0.00198006629943848
0.106	-0.00198757648468018
0.106125	-0.00189948081970215
0.10625	-0.00192546844482422
0.106375	-0.00195503234863281
0.1065	-0.00195157527923584
0.106625	-0.00190818309783936
0.10675	-0.00188696384429932
0.106875	-0.00190544128417969
0.107	-0.00194036960601807
0.107125	-0.0019460916519165
0.10725	-0.00191330909729004
0.107375	-0.00187218189239502
0.1075	-0.00188934803009033
0.107625	-0.00192832946777344
0.10775	-0.0019305944442749
0.107875	-0.00182867050170898
0.108	-0.00185596942901611
0.108125	-0.00190913677215576
0.10825	-0.00190603733062744
0.108375	-0.00188660621643066
0.1085	-0.00179922580718994
0.108625	-0.00179994106292725
0.10875	-0.0018913745880127
0.108875	-0.00187826156616211
0.109	-0.00183248519897461
0.109125	-0.00174093246459961
0.10925	-0.00169992446899414
0.109375	-0.00183331966400146
0.1095	-0.00181257724761963
0.109625	-0.00175201892852783
0.10975	-0.00171160697937012
0.109875	-0.00182211399078369
0.11	-0.00185620784759521
0.110125	-0.00178623199462891
0.11025	-0.00166785717010498
0.110375	-0.00160908699035645
0.1105	-0.00173687934875488
0.110625	-0.00176751613616943
0.11075	-0.00169479846954346
0.110875	-0.00163531303405762
0.111	-0.00167942047119141
0.111125	-0.00175082683563232
0.11125	-0.00173819065093994
0.111375	-0.00164175033569336
0.1115	-0.00160133838653564
0.111625	-0.0016704797744751
0.11175	-0.00169253349304199
0.111875	-0.00165581703186035
0.112	-0.00146186351776123
0.112125	-0.00165939331054688
0.11225	-0.0019218921661377
0.112375	-0.00195002555847168
0.1125	-0.00174510478973389
0.112625	-0.00145852565765381
0.11275	-0.00180578231811523
0.112875	-0.00181794166564941
0.113	-0.0018458366394043
0.113125	-0.00139307975769043
0.11325	-0.00200152397155762
0.113375	-0.00253880023956299
0.1135	-0.00257718563079834
0.113625	-0.00206530094146729
0.11375	-0.00132083892822266
0.113875	-0.00153326988220215
0.114	-0.00150918960571289
0.114125	-0.00155949592590332
0.11425	-0.00139117240905762
0.114375	-0.00143218040466309
0.1145	-0.00155937671661377
0.114625	-0.00165343284606934
0.11475	-0.00149023532867432
0.114875	-0.00136935710906982
0.115	-0.00140774250030518
0.115125	-0.00155067443847656
0.11525	-0.00148463249206543
0.115375	-0.0013575553894043
0.1155	-0.00137054920196533
0.115625	-0.00153636932373047
0.11575	-0.00154805183410645
0.115875	-0.00141549110412598
0.116	-0.00132489204406738
0.116125	-0.00140345096588135
0.11625	-0.00152170658111572
0.116375	-0.00142884254455566
0.1165	-0.00128519535064697
0.116625	-0.00126540660858154
0.11675	-0.00140631198883057
0.116875	-0.00148284435272217
0.117	-0.00144243240356445
0.117125	-0.00134062767028809
0.11725	-0.0013660192489624
0.117375	-0.00140798091888428
0.1175	-0.00138592720031738
0.117625	-0.00119805335998535
0.11775	-0.00120365619659424
0.117875	-0.00131833553314209
0.118	-0.00142717361450195
0.118125	-0.00138568878173828
0.11825	-0.001304030418396
0.118375	-0.00128853321075439
0.1185	-0.00128519535064697
0.118625	-0.00128436088562012
0.11875	-0.00121772289276123
0.118875	-0.00117480754852295
0.119	-0.001228928565979
0.119125	-0.0013810396194458
0.11925	-0.00137031078338623
0.119375	-0.00122630596160889
0.1195	-0.00117456912994385
0.119625	-0.00127720832824707
0.11975	-0.00128579139709473
0.119875	-0.00120174884796143
0.12	-0.00115525722503662
0.120125	-0.00116562843322754
0.12025	-0.00124871730804443
0.120375	-0.00122630596160889
0.1205	-0.00121164321899414
0.120625	-0.00118744373321533
0.12075	-0.00128328800201416
0.120875	-0.00130045413970947
0.121	-0.0011603832244873
0.121125	-0.00111663341522217
0.12125	-0.0010751485824585
0.121375	-0.00115585327148438
0.1215	-0.00120377540588379
0.121625	-0.00116991996765137
0.12175	-0.00119423866271973
0.121875	-0.00120460987091064
0.122	-0.00121843814849854
0.122125	-0.00109207630157471
0.12225	-0.00103342533111572
0.122375	-0.000998973846435547
0.1225	-0.00112998485565186
0.122625	-0.00116753578186035
0.12275	-0.00118470191955566
0.122875	-0.00117385387420654
0.123	-0.00111198425292969
0.123125	-0.00112497806549072
0.12325	-0.00108873844146729
0.123375	-0.00107145309448242
0.1235	-0.00103580951690674
0.123625	-0.00101554393768311
0.12375	-0.0010526180267334
0.123875	-0.00108087062835693
0.124	-0.00101697444915771
0.124125	-0.0010305643081665
0.12425	-0.00103628635406494
0.124375	-0.00108170509338379
0.1245	-0.00106287002563477
0.124625	-0.000972270965576172
0.12475	-0.00098729133605957
0.124875	-0.000943779945373535
0.125	-0.000975131988525391
0.125125	-0.00100195407867432
0.12525	-0.000963568687438965
0.125375	-0.000968098640441895
0.1255	-0.000948667526245117
0.125625	-0.000981330871582031
0.12575	-0.000967502593994141
0.125875	-0.000902533531188965
0.126	-0.000883340835571289
0.126125	-0.000959396362304688
0.12625	-0.00101578235626221
0.126375	-0.000940799713134766
0.1265	-0.000895142555236816
0.126625	-0.000942230224609375
0.12675	-0.000955104827880859
0.126875	-0.000930070877075195
0.127	-0.000898957252502441
0.127125	-0.00094306468963623
0.12725	-0.00092923641204834
0.127375	-0.000911116600036621
0.1275	-0.000921130180358887
0.127625	-0.00088346004486084
0.12775	-0.000906467437744141
0.127875	-0.000887632369995117
0.128	-0.000922560691833496
0.128125	-0.000872969627380371
0.12825	-0.000850915908813477
0.128375	-0.000881791114807129
0.1285	-0.000849127769470215
0.128625	-0.000855326652526855
0.12875	-0.000887751579284668
0.128875	-0.000883936882019043
0.129	-0.000914692878723145
0.129125	-0.000905513763427734
0.12925	-0.00085294246673584
0.129375	-0.000882506370544434
0.1295	-0.000832080841064453
0.129625	-0.000843524932861328
0.12975	-0.000849604606628418
0.129875	-0.000855565071105957
0.13	-0.000813961029052734
0.130125	-0.00085294246673584
0.13025	-0.00084221363067627
0.130375	-0.000847697257995605
0.1305	-0.000807762145996094
0.130625	-0.000720381736755371
0.13075	-0.000756263732910156
0.130875	-0.000757932662963867
0.131	-0.000748515129089355
0.131125	-0.000706672668457031
0.13125	-0.000735282897949219
0.131375	-0.000756740570068359
0.1315	-0.000730395317077637
0.131625	-0.000707507133483887
0.13175	-0.000715732574462891
0.131875	-0.000692963600158691
0.132	-0.000724315643310547
0.132125	-0.000689268112182617
0.13225	-0.000653624534606934
0.132375	-0.00068509578704834
0.1325	-0.000693440437316895
0.132625	-0.000674128532409668
0.13275	-0.000655651092529297
0.132875	-0.000630855560302734
0.133	-0.000686287879943848
0.133125	-0.000747084617614746
0.13325	-0.000659346580505371
0.133375	-0.000691652297973633
0.1335	-0.000660061836242676
0.133625	-0.000658869743347168
0.13375	-0.000680327415466309
0.133875	-0.000705957412719727
0.134	-0.000666975975036621
0.134125	-0.000674724578857422
0.13425	-0.000646352767944336
0.134375	-0.000618338584899902
0.1345	-0.000594139099121094
0.134625	-0.000548005104064941
0.13475	-0.000631928443908691
0.134875	-0.000621199607849121
0.135	-0.000586032867431641
0.135125	-0.00063025951385498
0.13525	-0.000617146492004395
0.135375	-0.000608086585998535
0.1355	-0.000615596771240234
0.135625	-0.000597119331359863
0.13575	-0.000582098960876465
0.135875	-0.000597715377807617
0.136	-0.00058591365814209
0.136125	-0.000577330589294434
0.13625	-0.00056147575378418
0.136375	-0.000526309013366699
0.1365	-0.000580668449401855
0.136625	-0.000578403472900391
0.13675	-0.000511288642883301
0.136875	-0.000496149063110352
0.137	-0.000556826591491699
0.137125	-0.000570893287658691
0.13725	-0.000543475151062012
0.137375	-0.000544428825378418
0.1375	-0.000520110130310059
0.137625	-0.000504612922668457
0.13775	-0.000499844551086426
0.137875	-0.000563263893127441
0.138	-0.000473380088806152
0.138125	-0.000466823577880859
0.13825	-0.000522136688232422
0.138375	-0.000528216361999512
0.1385	-0.000501155853271484
0.138625	-0.000454187393188477
0.13875	-0.000434756278991699
0.138875	-0.000505566596984863
0.139	-0.000509500503540039
0.139125	-0.000463604927062988
0.13925	-0.000435829162597656
0.139375	-0.000489711761474609
0.1395	-0.000459909439086914
0.139625	-0.000411272048950195
0.13975	-0.000475049018859863
0.139875	-0.000434041023254395
0.14	-0.000473260879516602
0.140125	-0.00045931339263916
0.14025	-0.00044560432434082
0.140375	-0.000449895858764648
0.1405	-0.000454187393188477
0.140625	-0.000419020652770996
0.14075	-0.000423789024353027
0.140875	-0.000431537628173828
0.141	-0.000412940979003906
0.141125	-0.000419735908508301
0.14125	-0.000458836555480957
0.141375	-0.000425457954406738
0.1415	-0.000361204147338867
0.141625	-0.000429749488830566
0.14175	-0.00040888786315918
0.141875	-0.000367999076843262
0.142	-0.000361323356628418
0.142125	-0.000378012657165527
0.14225	-0.000420928001403809
0.142375	-0.000352263450622559
0.1425	-0.000354528427124023
0.142625	-0.000371813774108887
0.14275	-0.000379562377929688
0.142875	-0.00037848949432373
0.143	-0.000314831733703613
0.143125	-0.000371813774108887
0.14325	-0.000351548194885254
0.143375	-0.000370502471923828
0.1435	-0.000368237495422363
0.143625	-0.000287652015686035
0.14375	-0.000331997871398926
0.143875	-0.000349998474121094
0.144	-0.000351905822753906
0.144125	-0.000324845314025879
0.14425	-0.000289082527160645
0.144375	-0.000271439552307129
0.1445	-0.000260114669799805
0.144625	-0.000305771827697754
0.14475	-0.000293850898742676
0.144875	-0.000281929969787598
0.145	-0.000325679779052734
0.145125	-0.00026547908782959
0.14525	-0.000252246856689453
0.145375	-0.000289678573608398
0.1455	-0.000269174575805664
0.145625	-0.000257968902587891
0.14575	-0.000277280807495117
0.145875	-0.000269055366516113
0.146	-0.000243782997131348
0.146125	-0.000272750854492188
0.14625	-0.000216007232666016
0.146375	-0.00025475025177002
0.1465	-0.000214815139770508
0.146625	-0.000212311744689941
0.14675	-0.000221014022827148
0.146875	-0.000237107276916504
0.147	-0.000219821929931641
0.147125	-0.000181436538696289
0.14725	-0.000229001045227051
0.147375	-0.000229120254516602
0.1475	-0.000271797180175781
0.147625	-0.000217437744140625
0.14775	-0.000202178955078125
0.147875	-0.000223278999328613
0.148	-0.000203371047973633
0.148125	-0.000159502029418945
0.14825	-0.000166535377502441
0.148375	-0.00018012523651123
0.1485	-9.52482223510742e-05
0.148625	-0.000158071517944336
0.14875	-0.000168085098266602
0.148875	-0.000163078308105469
0.149	-0.000219106674194336
0.149125	-0.000183224678039551
0.14925	-0.000139832496643066
0.149375	-0.000117897987365723
0.1495	-0.000182867050170898
0.149625	-0.000139594078063965
0.14975	-0.000137448310852051
0.149875	-0.000142455101013184
0.15	-9.02414321899414e-05
0.150125	-0.000175595283508301
0.15025	-0.000149726867675781
0.150375	-0.00011897087097168
0.1505	-9.45329666137695e-05
0.150625	-8.30888748168945e-05
0.15075	-0.000111937522888184
0.150875	-0.000108003616333008
0.151	-0.000140190124511719
0.151125	-0.000145792961120605
0.15125	-0.000127553939819336
0.151375	-9.78708267211914e-05
0.1515	-0.00011444091796875
0.151625	-0.000130057334899902
0.15175	-0.000127673149108887
0.151875	-0.000175118446350098
0.152	-0.000178933143615723
0.152125	-0.000138401985168457
0.15225	-0.000142574310302734
0.152375	-0.000138401985168457
0.1525	-0.000136971473693848
0.152625	-0.000105619430541992
0.15275	-7.28368759155273e-05
0.152875	-0.000103116035461426
0.153	-0.000125765800476074
0.153125	-8.70227813720703e-05
0.15325	-7.65323638916016e-05
0.153375	-7.41481781005859e-05
0.1535	-8.392333984375e-05
0.153625	-8.73804092407227e-05
0.15375	-8.17775726318359e-05
0.153875	-8.41617584228516e-05
0.154	-8.7738037109375e-05
0.154125	-7.36713409423828e-05
0.15425	-6.91413879394531e-05
0.154375	-5.25712966918945e-05
0.1545	-7.31945037841797e-05
0.154625	-9.02414321899414e-05
0.15475	-5.57899475097656e-05
0.154875	-7.43865966796875e-05
0.155	-4.31537628173828e-05
0.155125	-4.75645065307617e-05
0.15525	-6.15119934082031e-05
0.155375	-6.41345977783203e-05
0.1555	-3.27825546264648e-05
0.155625	-5.40018081665039e-05
0.15575	-3.95774841308594e-05
0.155875	-2.13384628295898e-05
0.156	-1.01327896118164e-05
0.156125	-3.01599502563477e-05
0.15625	-1.62124633789062e-05
0.156375	4.32729721069336e-05
0.1565	3.36170196533203e-05
0.156625	2.84910202026367e-05
0.15675	3.17096710205078e-05
0.156875	1.4185905456543e-05
0.157	-2.63452529907227e-05
0.157125	5.13792037963867e-05
0.15725	2.02655792236328e-05
0.157375	4.24385070800781e-05
0.1575	5.4478645324707e-05
0.157625	-2.76565551757812e-05
0.15775	6.31809234619141e-06
0.157875	3.7074089050293e-05
0.158	6.03199005126953e-05
0.158125	2.27689743041992e-05
0.15825	5.87701797485352e-05
0.158375	5.62667846679688e-05
0.1585	7.82012939453125e-05
0.158625	0.000105619430541992
0.15875	6.49690628051758e-05
0.158875	7.29560852050781e-05
0.159	7.49826431274414e-05
0.159125	0.000113368034362793
0.15925	7.33137130737305e-05
0.159375	0.000110387802124023
0.1595	7.92741775512695e-05
0.159625	0.000104665756225586
0.15975	9.48905944824219e-05
0.159875	7.67707824707031e-05
0.16	8.04662704467773e-05
0.160125	5.17368316650391e-05
0.16025	0.00012505054473877
0.160375	7.86781311035156e-05
0.1605	0.000109195709228516
0.160625	0.000111699104309082
0.16075	0.000121355056762695
0.160875	0.000171422958374023
0.161	7.08103179931641e-05
0.161125	7.95125961303711e-05
0.16125	0.00012671947479248
0.161375	0.000146627426147461
0.1615	0.000137567520141602
0.161625	0.000169277191162109
0.16175	0.000214099884033203
0.161875	0.000157475471496582
0.162	0.000151395797729492
0.162125	0.000192999839782715
0.16225	0.000191688537597656
0.162375	0.000126361846923828
0.1625	0.000170230865478516
0.162625	0.000176072120666504
0.16275	0.00014805793762207
0.162875	0.000221967697143555
0.163	0.000179052352905273
0.163125	0.000178098678588867
0.16325	0.000173211097717285
0.163375	0.000214219093322754
0.1635	0.000220298767089844
0.163625	0.000210285186767578
0.16375	0.000204682350158691
0.163875	0.000170350074768066
0.164	0.000230550765991211
0.164125	0.000232815742492676
0.16425	0.000226259231567383
0.164375	0.000189304351806641
0.1645	0.000190496444702148
0.164625	0.000180959701538086
0.16475	0.00022590160369873
0.164875	0.000202655792236328
0.165	0.000177145004272461
0.165125	0.000229716300964355
0.16525	0.000207424163818359
0.165375	0.000221967697143555
0.1655	0.000198483467102051
0.165625	0.00018620491027832
0.16575	0.000179171562194824
0.165875	0.000183939933776855
0.166	0.000238656997680664
0.166125	0.000249028205871582
0.16625	0.000205397605895996
0.166375	0.000233292579650879
0.1665	0.000227093696594238
0.166625	0.000258207321166992
0.16675	0.000234127044677734
0.166875	0.00022590160369873
0.167	0.000254273414611816
0.167125	0.00024867057800293
0.16725	0.000239729881286621
0.167375	0.000238537788391113
0.1675	0.000233888626098633
0.167625	0.000227808952331543
0.16775	0.000255346298217773
0.167875	0.000246644020080566
0.168	0.000313639640808105
0.168125	0.000312089920043945
0.16825	0.00029456615447998
0.168375	0.000281572341918945
0.1685	0.000269770622253418
0.168625	0.000282764434814453
0.16875	0.000279784202575684
0.168875	0.000307202339172363
0.169	0.000280618667602539
0.169125	0.000221371650695801
0.16925	0.000276923179626465
0.169375	0.000254392623901367
0.1695	0.000313282012939453
0.169625	0.000293374061584473
0.16975	0.000284194946289062
0.169875	0.000291228294372559
0.17	0.00030982494354248
0.170125	0.000307559967041016
0.17025	0.000328183174133301
0.170375	0.00032651424407959
0.1705	0.000300884246826172
0.170625	0.000326752662658691
0.17075	0.000282883644104004
0.170875	0.000352621078491211
0.171	0.000356197357177734
0.171125	0.000354290008544922
0.17125	0.000336766242980957
0.171375	0.000324487686157227
0.1715	0.000345349311828613
0.171625	0.000379204750061035
0.17175	0.00037074089050293
0.171875	0.000347733497619629
0.172	0.000376462936401367
0.172125	0.000360608100891113
0.17225	0.000324726104736328
0.172375	0.000344276428222656
0.1725	0.00038754940032959
0.172625	0.000377058982849121
0.17275	0.000367164611816406
0.172875	0.000368356704711914
0.173	0.000444293022155762
0.173125	0.000429987907409668
0.17325	0.000370621681213379
0.173375	0.00041496753692627
0.1735	0.000380039215087891
0.173625	0.000383734703063965
0.17375	0.000359892845153809
0.173875	0.000381350517272949
0.174	0.000343561172485352
0.174125	0.000375628471374512
0.17425	0.000382065773010254
0.174375	0.000359892845153809
0.1745	0.000404715538024902
0.174625	0.000398874282836914
0.17475	0.000395417213439941
0.174875	0.000395774841308594
0.175	0.000324010848999023
0.175125	0.000366687774658203
0.17525	0.000404238700866699
0.175375	0.000405192375183105
0.1755	0.000331997871398926
0.175625	0.000347137451171875
0.17575	0.000407934188842773
0.175875	0.00037074089050293
0.176	0.000380754470825195
0.176125	0.000365853309631348
0.17625	0.000387310981750488
0.176375	0.000437617301940918
0.1765	0.000377178192138672
0.176625	0.00040745735168457
0.17675	0.000428557395935059
0.176875	0.000382781028747559
0.177	0.000438332557678223
0.177125	0.000429391860961914
0.17725	0.000436305999755859
0.177375	0.000421047210693359
0.1775	0.000419735908508301
0.177625	0.000416874885559082
0.17775	0.000426888465881348
0.177875	0.000439286231994629
0.178	0.000441431999206543
0.178125	0.000403761863708496
0.17825	0.000418901443481445
0.178375	0.000408291816711426
0.1785	0.000449419021606445
0.178625	0.000453472137451172
0.17875	0.000476360321044922
0.178875	0.00046849250793457
0.179	0.000486493110656738
0.179125	0.000481486320495605
0.17925	0.000391721725463867
0.179375	0.000492334365844727
0.1795	0.000485658645629883
0.179625	0.000473976135253906
0.17975	0.000455498695373535
0.179875	0.000490427017211914
0.18	0.000525951385498047
0.180125	0.000504970550537109
0.18025	0.000479459762573242
0.180375	0.000500202178955078
0.1805	0.000476837158203125
0.180625	0.000458955764770508
0.18075	0.000467896461486816
0.180875	0.000459671020507812
0.181	0.000476241111755371
0.181125	0.000488877296447754
0.18125	0.000498771667480469
0.181375	0.000445365905761719
0.1815	0.000511646270751953
0.181625	0.000542640686035156
0.18175	0.000494599342346191
0.181875	0.000478148460388184
0.182	0.000510334968566895
0.182125	0.000469088554382324
0.18225	0.000502824783325195
0.182375	0.000533819198608398
0.1825	0.000524997711181641
0.182625	0.000513911247253418
0.18275	0.000507950782775879
0.182875	0.000525474548339844
0.183	0.000511646270751953
0.183125	0.000522255897521973
0.18325	0.00048220157623291
0.183375	0.000508904457092285
0.1835	0.000502586364746094
0.183625	0.000524520874023438
0.18375	0.000545978546142578
0.183875	0.000528931617736816
0.184	0.000480294227600098
0.184125	0.000502467155456543
0.18425	0.000560164451599121
0.184375	0.000528216361999512
0.1845	0.000564098358154297
0.184625	0.000556230545043945
0.18475	0.000529766082763672
0.184875	0.00052940845489502
0.185	0.000558972358703613
0.185125	0.000515460968017578
0.18525	0.000518918037414551
0.185375	0.000545978546142578
0.1855	0.000508904457092285
0.185625	0.000537991523742676
0.18575	0.00050818920135498
0.185875	0.00050806999206543
0.186	0.000557780265808105
0.186125	0.000552773475646973
0.18625	0.000565886497497559
0.186375	0.00057375431060791
0.1865	0.000562429428100586
0.186625	0.000515222549438477
0.18675	0.000556707382202148
0.186875	0.000570297241210938
0.187	0.000547647476196289
0.187125	0.000556588172912598
0.18725	0.000571012496948242
0.187375	0.000569462776184082
0.1875	0.000545620918273926
0.187625	0.000549912452697754
0.18775	0.000518560409545898
0.187875	0.000540256500244141
0.188	0.000571012496948242
0.188125	0.000542402267456055
0.18825	0.000548124313354492
0.188375	0.000552058219909668
0.1885	0.000558614730834961
0.188625	0.000542879104614258
0.18875	0.000535249710083008
0.188875	0.000565886497497559
0.189	0.000518560409545898
0.189125	0.000585436820983887
0.18925	0.000577449798583984
0.189375	0.00059962272644043
0.1895	0.000598669052124023
0.189625	0.000611066818237305
0.18975	0.00061500072479248
0.189875	0.000615835189819336
0.19	0.000609993934631348
0.190125	0.000562071800231934
0.19025	0.000652909278869629
0.190375	0.000661134719848633
0.1905	0.000636816024780273
0.190625	0.000661492347717285
0.19075	0.000689148902893066
0.190875	0.000619769096374512
0.191	0.000650405883789062
0.191125	0.000627040863037109
0.19125	0.000627517700195312
0.191375	0.000641107559204102
0.1915	0.000651121139526367
0.191625	0.000670433044433594
0.19175	0.000646233558654785
0.191875	0.000635862350463867
0.192	0.000623106956481934
0.192125	0.000633597373962402
0.19225	0.000611305236816406
0.192375	0.000666379928588867
0.1925	0.000654935836791992
0.192625	0.000690221786499023
0.19275	0.000667452812194824
0.192875	0.000632524490356445
0.193	0.00062859058380127
0.193125	0.000615835189819336
0.19325	0.000626087188720703
0.193375	0.000669598579406738
0.1935	0.000665068626403809
0.193625	0.000597357749938965
0.19375	0.000639200210571289
0.193875	0.000637650489807129
0.194	0.000637650489807129
0.194125	0.000596284866333008
0.19425	0.000612854957580566
0.194375	0.00067901611328125
0.1945	0.00059354305267334
0.194625	0.000622749328613281
0.19475	0.000662326812744141
0.194875	0.000637054443359375
0.195	0.000631928443908691
0.195125	0.000658512115478516
0.19525	0.000664710998535156
0.195375	0.00061333179473877
0.1955	0.000646829605102539
0.195625	0.000657081604003906
0.19575	0.000641226768493652
0.195875	0.000610113143920898
0.196	0.000592231750488281
0.196125	0.000638604164123535
0.19625	0.000601887702941895
0.196375	0.000608205795288086
0.1965	0.000624299049377441
0.196625	0.000598669052124023
0.19675	0.000623464584350586
0.196875	0.000670194625854492
0.197	0.000633955001831055
0.197125	0.00064384937286377
0.19725	0.000637292861938477
0.197375	0.000662088394165039
0.1975	0.000673890113830566
0.197625	0.000635385513305664
0.19775	0.00066530704498291
0.197875	0.000692248344421387
0.198	0.000673294067382812
0.198125	0.000678181648254395
0.19825	0.000655770301818848
0.198375	0.000645875930786133
0.1985	0.000640273094177246
0.198625	0.000655293464660645
0.19875	0.000658273696899414
0.198875	0.000656962394714355
0.199	0.000672459602355957
0.199125	0.0006561279296875
0.19925	0.00066983699798584
0.199375	0.000630021095275879
0.1995	0.000718235969543457
0.199625	0.00068056583404541
0.19975	0.000642061233520508
0.199875	0.000662326812744141
0.2	0.000638723373413086
0.200125	0.000653982162475586
0.20025	0.000639677047729492
0.200375	0.000665783882141113
0.2005	0.000625371932983398
0.200625	0.000653624534606934
0.20075	0.000687479972839355
0.200875	0.000694155693054199
0.201	0.000661253929138184
0.201125	0.000646233558654785
0.20125	0.00072026252746582
0.201375	0.000677824020385742
0.2015	0.000671505928039551
0.201625	0.000705480575561523
0.20175	0.00066983699798584
0.201875	0.000702977180480957
0.202	0.000702738761901855
0.202125	0.000721454620361328
0.20225	0.000732779502868652
0.202375	0.000701546669006348
0.2025	0.000716567039489746
0.202625	0.000714898109436035
0.20275	0.000723719596862793
0.202875	0.000689029693603516
0.203	0.000642180442810059
0.203125	0.000725030899047852
0.20325	0.000728845596313477
0.203375	0.000690460205078125
0.2035	0.000729084014892578
0.203625	0.000734448432922363
0.20375	0.000754714012145996
0.203875	0.000686883926391602
0.204	0.000742554664611816
0.204125	0.000746965408325195
0.20425	0.000752806663513184
0.204375	0.000727534294128418
0.2045	0.000704526901245117
0.204625	0.000721454620361328
0.20475	0.00066065788269043
0.204875	0.000658750534057617
0.205	0.000698089599609375
0.205125	0.000743389129638672
0.20525	0.000722289085388184
0.205375	0.00072932243347168
0.2055	0.000732898712158203
0.205625	0.000713944435119629
0.20575	0.00072014331817627
0.205875	0.00065922737121582
0.206	0.000680327415466309
0.206125	0.000738978385925293
0.20625	0.000700592994689941
0.206375	0.00069117546081543
0.2065	0.000737190246582031
0.206625	0.000710487365722656
0.20675	0.000714302062988281
0.206875	0.000767350196838379
0.207	0.00075829029083252
0.207125	0.000725030899047852
0.20725	0.000728964805603027
0.207375	0.000789761543273926
0.2075	0.000773787498474121
0.207625	0.000745296478271484
0.20775	0.000741004943847656
0.207875	0.000752449035644531
0.208	0.000780463218688965
0.208125	0.000705599784851074
0.20825	0.000691413879394531
0.208375	0.000713109970092773
0.2085	0.00071561336517334
0.208625	0.000739216804504395
0.20875	0.000721096992492676
0.208875	0.000729560852050781
0.209	0.00071561336517334
0.209125	0.000752687454223633
0.20925	0.000753521919250488
0.209375	0.000732779502868652
0.2095	0.000700473785400391
0.209625	0.000745534896850586
0.20975	0.000760912895202637
0.209875	0.000768542289733887
0.21	0.000696659088134766
0.210125	0.000727057456970215
0.21025	0.000817418098449707
0.210375	0.000781893730163574
0.2105	0.000720620155334473
0.210625	0.000677347183227539
0.21075	0.000778794288635254
0.210875	0.000806331634521484
0.211	0.000778794288635254
0.211125	0.000725388526916504
0.21125	0.000767707824707031
0.211375	0.000848889350891113
0.2115	0.000821948051452637
0.211625	0.000761866569519043
0.21175	0.000713825225830078
0.211875	0.00078284740447998
0.212	0.000821471214294434
0.212125	0.00079643726348877
0.21225	0.00075995922088623
0.212375	0.00070500373840332
0.2125	0.000774025917053223
0.212625	0.00081169605255127
0.21275	0.000807642936706543
0.212875	0.000760555267333984
0.213	0.000763058662414551
0.213125	0.000816822052001953
0.21325	0.000792384147644043
0.213375	0.000715732574462891
0.2135	0.000706672668457031
0.213625	0.00080263614654541
0.21375	0.000806450843811035
0.213875	0.000823616981506348
0.214	0.000736117362976074
0.214125	0.000759601593017578
0.21425	0.000796198844909668
0.214375	0.000843286514282227
0.2145	0.000786542892456055
0.214625	0.000684976577758789
0.21475	0.000816941261291504
0.214875	0.000851631164550781
0.215	0.000800728797912598
0.215125	0.000728726387023926
0.21525	0.000665903091430664
0.215375	0.00076901912689209
0.2155	0.000842452049255371
0.215625	0.000837564468383789
0.21575	0.000742077827453613
0.215875	0.000743269920349121
0.216	0.000832080841064453
0.216125	0.000812649726867676
0.21625	0.000717639923095703
0.216375	0.000621199607849121
0.2165	0.000689387321472168
0.216625	0.000846266746520996
0.21675	0.000852227210998535
0.216875	0.000749468803405762
0.217	0.000735163688659668
0.217125	0.000725626945495605
0.21725	0.000817298889160156
0.217375	0.000751376152038574
0.2175	0.000662803649902344
0.217625	0.000722169876098633
0.21775	0.000843286514282227
0.217875	0.000898957252502441
0.218	0.000741243362426758
0.218125	0.000698447227478027
0.21825	0.000735759735107422
0.218375	0.000877857208251953
0.2185	0.000812053680419922
0.218625	0.000722885131835938
0.21875	0.000782251358032227
0.218875	0.000847101211547852
0.219	0.000913262367248535
0.219125	0.000821590423583984
0.21925	0.00072789192199707
0.219375	0.000759243965148926
0.2195	0.000969052314758301
0.219625	0.000760912895202637
0.21975	0.000472903251647949
0.219875	0.000414490699768066
0.22	0.000659346580505371
0.220125	0.000954627990722656
0.22025	0.000677704811096191
0.220375	0.00056922435760498
0.2205	0.000591874122619629
0.220625	0.000965714454650879
0.22075	0.000389695167541504
0.220875	-0.00019228458404541
0.221	-0.00029146671295166
0.221125	0.000299572944641113
0.22125	0.00102710723876953
0.221375	0.000902771949768066
0.2215	0.000865936279296875
0.221625	0.000820517539978027
0.22175	0.000902533531188965
0.221875	0.000857949256896973
0.222	0.000720024108886719
0.222125	0.0005950927734375
0.22225	0.000804662704467773
0.222375	0.000994443893432617
0.2225	0.00096738338470459
0.222625	0.000737428665161133
0.22275	0.000794410705566406
0.222875	0.00086677074432373
0.223	0.000903129577636719
0.223125	0.000822186470031738
0.22325	0.000773787498474121
0.223375	0.000829219818115234
0.2235	0.000912308692932129
0.223625	0.000847458839416504
0.22375	0.000719308853149414
0.223875	0.000810742378234863
0.224	0.000961899757385254
0.224125	0.00100171566009521
0.22425	0.000873446464538574
0.224375	0.000749468803405762
0.2245	0.000698447227478027
0.224625	0.000785470008850098
0.22475	0.000872254371643066
0.224875	0.000859975814819336
0.225	0.000886440277099609
0.225125	0.00101876258850098
0.22525	0.00100088119506836
0.225375	0.000837326049804688
0.2255	0.000702142715454102
0.225625	0.00065922737121582
0.22575	0.000815749168395996
0.225875	0.000920772552490234
0.226	0.000902652740478516
0.226125	0.000895500183105469
0.22625	0.000988483428955078
0.226375	0.000991344451904297
0.2265	0.000868558883666992
0.226625	0.00072944164276123
0.22675	0.000716447830200195
0.226875	0.000833511352539062
0.227	0.000944137573242188
0.227125	0.000893235206604004
0.22725	0.000841021537780762
0.227375	0.000841736793518066
0.2275	0.000919699668884277
0.227625	0.000963211059570312
0.22775	0.00085747241973877
0.227875	0.000821590423583984
0.228	0.000830292701721191
0.228125	0.000869512557983398
0.22825	0.000766634941101074
0.228375	0.000765085220336914
0.2285	0.000860095024108887
0.228625	0.000972986221313477
0.22875	0.00102913379669189
0.228875	0.00100123882293701
0.229	0.000798583030700684
0.229125	0.000776886940002441
0.22925	0.000828027725219727
0.229375	0.000768184661865234
0.2295	0.000789403915405273
0.229625	0.000881433486938477
0.22975	0.000976204872131348
0.229875	0.000951886177062988
0.23	0.000842452049255371
0.230125	0.000737190246582031
0.23025	0.000692248344421387
0.230375	0.000751137733459473
0.2305	0.000823259353637695
0.230625	0.000908493995666504
0.23075	0.000881791114807129
0.230875	0.000869393348693848
0.231	0.000894665718078613
0.231125	0.000892758369445801
0.23125	0.000850558280944824
0.231375	0.000807881355285645
0.2315	0.000855803489685059
0.231625	0.000879526138305664
0.23175	0.000903725624084473
0.231875	0.000871419906616211
0.232	0.000861883163452148
0.232125	0.000900149345397949
0.23225	0.000980257987976074
0.232375	0.000902652740478516
0.2325	0.000894427299499512
0.232625	0.000870943069458008
0.23275	0.00084841251373291
0.232875	0.000828742980957031
0.233	0.00078582763671875
0.233125	0.000852584838867188
0.23325	0.000964999198913574
0.233375	0.000961422920227051
0.2335	0.000953912734985352
0.233625	0.000896692276000977
0.23375	0.000889301300048828
0.233875	0.000905394554138184
0.234	0.000847816467285156
0.234125	0.000901103019714355
0.23425	0.000886321067810059
0.234375	0.000923275947570801
0.2345	0.000897884368896484
0.234625	0.00087738037109375
0.23475	0.000882148742675781
0.234875	0.000895977020263672
0.235	0.000947952270507812
0.235125	0.000931382179260254
0.23525	0.000835537910461426
0.235375	0.000875115394592285
0.2355	0.000913739204406738
0.235625	0.000896811485290527
0.23575	0.00086820125579834
0.235875	0.000868439674377441
0.236	0.000919222831726074
0.236125	0.000881314277648926
0.23625	0.000845909118652344
0.236375	0.000879526138305664
0.2365	0.000832200050354004
0.236625	0.000897049903869629
0.23675	0.00088202953338623
0.236875	0.000881075859069824
0.237	0.000910043716430664
0.237125	0.000911831855773926
0.23725	0.00089263916015625
0.237375	0.000842094421386719
0.2375	0.000862240791320801
0.237625	0.000844955444335938
0.23775	0.000935554504394531
0.237875	0.000904321670532227
0.238	0.000908851623535156
0.238125	0.000930666923522949
0.23825	0.000862717628479004
0.238375	0.000904679298400879
0.2385	0.000844717025756836
0.238625	0.000844597816467285
0.23875	0.000927329063415527
0.238875	0.000923395156860352
0.239	0.000882983207702637
0.239125	0.000911116600036621
0.23925	0.000911116600036621
0.239375	0.00092780590057373
0.2395	0.00093841552734375
0.239625	0.000903725624084473
0.23975	0.000883340835571289
0.239875	0.000881671905517578
0.24	0.000885009765625
0.240125	0.000881075859069824
0.24025	0.000850319862365723
0.240375	0.000855326652526855
0.2405	0.000903964042663574
0.240625	0.000883579254150391
0.24075	0.000902652740478516
0.240875	0.000878214836120605
0.241	0.000878691673278809
0.241125	0.000872492790222168
0.24125	0.000889062881469727
0.241375	0.00090181827545166
0.2415	0.00087893009185791
0.241625	0.000928640365600586
0.24175	0.000939249992370605
0.241875	0.000895023345947266
0.242	0.000880122184753418
0.242125	0.000871419906616211
0.24225	0.000833272933959961
0.242375	0.000864863395690918
0.2425	0.000871062278747559
0.242625	0.000872611999511719
0.24275	0.0008544921875
0.242875	0.000924825668334961
0.243	0.000871896743774414
0.243125	0.000825762748718262
0.24325	0.000871777534484863
0.243375	0.000920772552490234
0.2435	0.000847935676574707
0.243625	0.000898241996765137
0.24375	0.000877737998962402
0.243875	0.000834465026855469
0.244	0.00089561939239502
0.244125	0.000898361206054688
0.24425	0.00092625617980957
0.244375	0.000881433486938477
0.2445	0.000911474227905273
0.244625	0.000927925109863281
0.24475	0.000943899154663086
0.244875	0.000901222229003906
0.245	0.000926852226257324
0.245125	0.000908493995666504
0.24525	0.000914931297302246
0.245375	0.000921487808227539
0.2455	0.000857234001159668
0.245625	0.000876307487487793
0.24575	0.000863313674926758
0.245875	0.00089561939239502
0.246	0.000919342041015625
0.246125	0.000876903533935547
0.24625	0.000882863998413086
0.246375	0.000899791717529297
0.2465	0.000888586044311523
0.246625	0.000914216041564941
0.24675	0.000895023345947266
0.246875	0.000881671905517578
0.247	0.000911116600036621
0.247125	0.000873446464538574
0.24725	0.000896453857421875
0.247375	0.000829577445983887
0.2475	0.000896334648132324
0.247625	0.000918745994567871
0.24775	0.000861644744873047
0.247875	0.000865578651428223
0.248	0.000888705253601074
0.248125	0.000892519950866699
0.24825	0.000882148742675781
0.248375	0.000888347625732422
0.2485	0.000923037528991699
0.248625	0.00104606151580811
0.24875	0.00102317333221436
0.248875	0.00105845928192139
0.249	0.00102639198303223
0.249125	0.000992774963378906
0.24925	0.00103771686553955
0.249375	0.000967264175415039
0.2495	0.00103402137756348
0.249625	0.00097966194152832
0.24975	0.000966906547546387
0.249875	0.00100302696228027
0.25	0.00103223323822021
0.250125	0.00102710723876953
0.25025	0.000967860221862793
0.250375	0.000971078872680664
0.2505	0.000987887382507324
0.250625	0.00101304054260254
0.25075	0.000959873199462891
0.250875	0.000976204872131348
0.251	0.000954031944274902
0.251125	0.000969767570495605
0.25125	0.000995397567749023
0.251375	0.000974535942077637
0.2515	0.000987768173217773
0.251625	0.000955343246459961
0.25175	0.00101304054260254
0.251875	0.000987410545349121
0.252	0.00103676319122314
0.252125	0.00102365016937256
0.25225	0.00104367733001709
0.252375	0.00101780891418457
0.2525	0.00097203254699707
0.252625	0.000914096832275391
0.25275	0.000934243202209473
0.252875	0.00099480152130127
0.253	0.000939130783081055
0.253125	0.000993609428405762
0.25325	0.000990629196166992
0.253375	0.00101995468139648
0.2535	0.000953316688537598
0.253625	0.000982999801635742
0.25375	0.000990986824035645
0.253875	0.000972867012023926
0.254	0.00101077556610107
0.254125	0.00101923942565918
0.25425	0.00104355812072754
0.254375	0.00101315975189209
0.2545	0.000959038734436035
0.254625	0.000987529754638672
0.25475	0.000986218452453613
0.254875	0.000990509986877441
0.255	0.000978827476501465
0.255125	0.000949978828430176
0.25525	0.000978827476501465
0.255375	0.00100374221801758
0.2555	0.00099945068359375
0.255625	0.000985264778137207
0.25575	0.0009765625
0.255875	0.000994443893432617
0.256	0.000951766967773438
0.256125	0.00097811222076416
0.25625	0.00100255012512207
0.256375	0.000974297523498535
0.2565	0.000995516777038574
0.256625	0.00102198123931885
0.25675	0.000997066497802734
0.256875	0.000990867614746094
0.257	0.000984907150268555
0.257125	0.000969290733337402
0.25725	0.00100612640380859
0.257375	0.00103187561035156
0.2575	0.00102925300598145
0.257625	0.00104439258575439
0.25775	0.000975131988525391
0.257875	0.00098872184753418
0.258	0.000971078872680664
0.258125	0.000981926918029785
0.25825	0.000984072685241699
0.258375	0.00102567672729492
0.2585	0.000998973846435547
0.258625	0.00092613697052002
0.25875	0.000957250595092773
0.258875	0.000985980033874512
0.259	0.00100648403167725
0.259125	0.000955462455749512
0.25925	0.00101983547210693
0.259375	0.000995755195617676
0.2595	0.00102269649505615
0.259625	0.00102531909942627
0.25975	0.00100874900817871
0.259875	0.00101244449615479
0.26	0.00102412700653076
0.260125	0.00110220909118652
0.26025	0.00101554393768311
0.260375	0.00104093551635742
0.2605	0.00101315975189209
0.260625	0.00101256370544434
0.26075	0.00104391574859619
0.260875	0.00105249881744385
0.261	0.00108206272125244
0.261125	0.00107109546661377
0.26125	0.00106251239776611
0.261375	0.00101184844970703
0.2615	0.000999212265014648
0.261625	0.00100290775299072
0.26175	0.00102019309997559
0.261875	0.00101351737976074
0.262	0.000958442687988281
0.262125	0.000995397567749023
0.26225	0.000961661338806152
0.262375	0.000787615776062012
0.2625	0.000815987586975098
0.262625	0.000828742980957031
0.26275	0.000852823257446289
0.262875	0.000891685485839844
0.263	0.000833749771118164
0.263125	0.000837087631225586
0.26325	0.000851273536682129
0.263375	0.000857114791870117
0.2635	0.000864863395690918
0.263625	0.00087285041809082
0.26375	0.000830292701721191
0.263875	0.000844836235046387
0.264	0.000853657722473145
0.264125	0.000853776931762695
0.26425	0.000866532325744629
0.264375	0.000848054885864258
0.2645	0.000863909721374512
0.264625	0.000826716423034668
0.26475	0.000838875770568848
0.264875	0.000879049301147461
0.265	0.00080561637878418
0.265125	0.000824451446533203
0.26525	0.000864028930664062
0.265375	0.000842094421386719
0.2655	0.000873804092407227
0.265625	0.000864505767822266
0.26575	0.000837445259094238
0.265875	0.000841021537780762
0.266	0.000839710235595703
0.266125	0.000877022743225098
0.26625	0.000848293304443359
0.266375	0.000856995582580566
0.2665	0.000803470611572266
0.266625	0.000810861587524414
0.26675	0.00088346004486084
0.266875	0.000836372375488281
0.267	0.000836849212646484
0.267125	0.000836730003356934
0.26725	0.000827312469482422
0.267375	0.000824689865112305
0.2675	0.000826001167297363
0.267625	0.000843286514282227
0.26775	0.000838160514831543
0.267875	0.000801205635070801
0.268	0.00085914134979248
0.268125	0.000897645950317383
0.26825	0.000820159912109375
0.268375	0.00079798698425293
0.2685	0.000855207443237305
0.268625	0.000834465026855469
0.26875	0.000854611396789551
0.268875	0.000866174697875977
0.269	0.00082850456237793
0.269125	0.000825166702270508
0.26925	0.000858902931213379
0.269375	0.00085604190826416
0.2695	0.000812888145446777
0.269625	0.000812768936157227
0.26975	0.000847935676574707
0.269875	0.000837802886962891
0.27	0.000895023345947266
0.270125	0.000846624374389648
0.27025	0.00081944465637207
0.270375	0.000855445861816406
0.2705	0.00086057186126709
0.270625	0.000862002372741699
0.27075	0.000893950462341309
0.270875	0.000867486000061035
0.271	0.000847935676574707
0.271125	0.000898480415344238
0.27125	0.000834226608276367
0.271375	0.000864386558532715
0.2715	0.000878572463989258
0.271625	0.000841140747070312
0.27175	0.000829219818115234
0.271875	0.000838637351989746
0.272	0.00086367130279541
0.272125	0.000856518745422363
0.27225	0.000876665115356445
0.272375	0.000877141952514648
0.2725	0.00087893009185791
0.272625	0.000855445861816406
0.27275	0.000847935676574707
0.272875	0.000881552696228027
0.273	0.000850677490234375
0.273125	0.000848650932312012
0.27325	0.000866413116455078
0.273375	0.000902891159057617
0.2735	0.000850439071655273
0.273625	0.000828266143798828
0.27375	0.00082862377166748
0.273875	0.00084841251373291
0.274	0.000884771347045898
0.274125	0.000856995582580566
0.27425	0.00085604190826416
0.274375	0.000843405723571777
0.2745	0.000816583633422852
0.274625	0.000851154327392578
0.27475	0.000826716423034668
0.274875	0.000827670097351074
0.275	0.000835299491882324
0.275125	0.000839114189147949
0.27525	0.000841736793518066
0.275375	0.000856995582580566
0.2755	0.000878453254699707
0.275625	0.000864982604980469
0.27575	0.000841259956359863
0.275875	0.000858426094055176
0.276	0.000876784324645996
0.276125	0.000873208045959473
0.27625	0.000885725021362305
0.276375	0.000853538513183594
0.2765	0.000829339027404785
0.276625	0.000802755355834961
0.27675	0.000869631767272949
0.276875	0.000888466835021973
0.277	0.000852346420288086
0.277125	0.000839352607727051
0.27725	0.000829815864562988
0.277375	0.000851631164550781
0.2775	0.000868916511535645
0.277625	0.000849127769470215
0.27775	0.000846028327941895
0.277875	0.000856161117553711
0.278	0.000840067863464355
0.278125	0.000868320465087891
0.27825	0.000831246376037598
0.278375	0.000838041305541992
0.2785	0.000858306884765625
0.278625	0.000838041305541992
0.27875	0.000847220420837402
0.278875	0.000830411911010742
0.279	0.00086820125579834
0.279125	0.000850200653076172
0.27925	0.000843167304992676
0.279375	0.000895977020263672
0.2795	0.000844359397888184
0.279625	0.000842452049255371
0.27975	0.000871896743774414
0.279875	0.000864505767822266
0.28	0.000887274742126465
0.280125	0.000902414321899414
0.28025	0.000846982002258301
0.280375	0.000801801681518555
0.2805	0.000836849212646484
0.280625	0.000871062278747559
0.28075	0.000844240188598633
0.280875	0.00085759162902832
0.281	0.000854849815368652
0.281125	0.000898122787475586
0.28125	0.000875234603881836
0.281375	0.000874757766723633
0.2815	0.000837802886962891
0.281625	0.000848889350891113
0.28175	0.000869870185852051
0.281875	0.000885128974914551
0.282	0.000843524932861328
0.282125	0.0008544921875
0.28225	0.000870227813720703
0.282375	0.000856876373291016
0.2825	0.000886797904968262
0.282625	0.000862360000610352
0.28275	0.000914454460144043
0.282875	0.000905156135559082
0.283	0.000861763954162598
0.283125	0.000850319862365723
0.28325	0.000867724418640137
0.283375	0.00087273120880127
0.2835	0.000888347625732422
0.283625	0.000874161720275879
0.28375	0.000884532928466797
0.283875	0.000886678695678711
0.284	0.000882267951965332
0.284125	0.0009002685546875
0.28425	0.000887870788574219
0.284375	0.000852227210998535
0.2845	0.000835180282592773
0.284625	0.000867962837219238
0.28475	0.000861406326293945
0.284875	0.000871539115905762
0.285	0.000893115997314453
0.285125	0.000901222229003906
0.28525	0.000862479209899902
0.285375	0.000856161117553711
0.2855	0.000876665115356445
0.285625	0.000892043113708496
0.28575	0.000885725021362305
0.285875	0.000903010368347168
0.286	0.000878572463989258
0.286125	0.000894665718078613
0.28625	0.00091099739074707
0.286375	0.000902414321899414
0.2865	0.000874042510986328
0.286625	0.00086820125579834
0.28675	0.000870704650878906
0.286875	0.000892281532287598
0.287	0.000910043716430664
0.287125	0.000878095626831055
0.28725	0.000893831253051758
0.287375	0.000875115394592285
0.2875	0.000904440879821777
0.287625	0.00088047981262207
0.28775	0.000887870788574219
0.287875	0.000891566276550293
0.288	0.000815033912658691
0.288125	0.000883817672729492
0.28825	0.000858187675476074
0.288375	0.000875234603881836
0.2885	0.000858664512634277
0.288625	0.000858306884765625
0.28875	0.000880956649780273
0.288875	0.000843644142150879
0.289	0.000831127166748047
0.289125	0.000837445259094238
0.28925	0.000825285911560059
0.289375	0.000833511352539062
0.2895	0.000900030136108398
0.289625	0.000853657722473145
0.28975	0.000837326049804688
0.289875	0.000843524932861328
0.29	0.000863909721374512
0.290125	0.000847816467285156
0.29025	0.000832676887512207
0.290375	0.000834941864013672
0.2905	0.000931143760681152
0.290625	0.00088798999786377
0.29075	0.000864267349243164
0.290875	0.000885605812072754
0.291	0.000839352607727051
0.291125	0.000882863998413086
0.29125	0.000827670097351074
0.291375	0.00087893009185791
0.2915	0.000856637954711914
0.291625	0.00085747241973877
0.29175	0.000865817070007324
0.291875	0.000811338424682617
0.292	0.000833392143249512
0.292125	0.000853419303894043
0.29225	0.000851869583129883
0.292375	0.00079047679901123
0.2925	0.000793695449829102
0.292625	0.000849246978759766
0.29275	0.000835537910461426
0.292875	0.000892043113708496
0.293	0.000910758972167969
0.293125	0.000845074653625488
0.29325	0.00087273120880127
0.293375	0.000855207443237305
0.2935	0.000871539115905762
0.293625	0.000891804695129395
0.29375	0.000898122787475586
0.293875	0.000860452651977539
0.294	0.000823616981506348
0.294125	0.000880122184753418
0.29425	0.000890731811523438
0.294375	0.000910758972167969
0.2945	0.000856161117553711
0.294625	0.000857949256896973
0.29475	0.000831246376037598
0.294875	0.00083458423614502
0.295	0.000906109809875488
0.295125	0.000871896743774414
0.29525	0.000844836235046387
0.295375	0.00084221363067627
0.2955	0.00084531307220459
0.295625	0.00087130069732666
0.29575	0.000886082649230957
0.295875	0.000864863395690918
0.296	0.000844717025756836
0.296125	0.000824213027954102
0.29625	0.000823259353637695
0.296375	0.000881195068359375
0.2965	0.000889420509338379
0.296625	0.000836014747619629
0.29675	0.000831246376037598
0.296875	0.000827670097351074
0.297	0.000880122184753418
0.297125	0.000867247581481934
0.29725	0.00087130069732666
0.297375	0.000886440277099609
0.2975	0.000903725624084473
0.297625	0.000844120979309082
0.29775	0.000881075859069824
0.297875	0.000878572463989258
0.298	0.000823378562927246
0.298125	0.000883221626281738
0.29825	0.000856161117553711
0.298375	0.000861525535583496
0.2985	0.000863194465637207
0.298625	0.000845074653625488
0.29875	0.000859498977661133
0.298875	0.000870347023010254
0.299	0.000869035720825195
0.299125	0.00088810920715332
0.29925	0.000876069068908691
0.299375	0.000842928886413574
0.2995	0.00087285041809082
0.299625	0.000913500785827637
0.29975	0.000848770141601562
0.299875	0.000862360000610352
0.3	0.000847220420837402
0.300125	0.000866889953613281
0.30025	0.000832080841064453
0.300375	0.000834226608276367
0.3005	0.000825285911560059
0.300625	0.000828981399536133
0.30075	0.000885486602783203
0.300875	0.000799059867858887
0.301	0.000823974609375
0.301125	0.000843644142150879
0.30125	0.000867247581481934
0.301375	0.000853896141052246
0.3015	0.000816464424133301
0.301625	0.000827312469482422
0.30175	0.000841617584228516
0.301875	0.000864744186401367
0.302	0.000872492790222168
0.302125	0.000866055488586426
0.30225	0.000846147537231445
0.302375	0.000844955444335938
0.3025	0.000856161117553711
0.302625	0.000863313674926758
0.30275	0.000862836837768555
0.302875	0.000847339630126953
0.303	0.000838756561279297
0.303125	0.000850558280944824
0.30325	0.000860810279846191
0.303375	0.000838160514831543
0.3035	0.000837445259094238
0.303625	0.000836014747619629
0.30375	0.000798821449279785
0.303875	0.000843167304992676
0.304	0.000849246978759766
0.304125	0.000842809677124023
0.30425	0.000824809074401855
0.304375	0.000828266143798828
0.3045	0.000856876373291016
0.304625	0.000811576843261719
0.30475	0.000817179679870605
0.304875	0.000814318656921387
0.305	0.000849485397338867
0.305125	0.000834345817565918
0.30525	0.000868678092956543
0.305375	0.000854015350341797
0.3055	0.000820159912109375
0.305625	0.000850677490234375
0.30575	0.00083315372467041
0.305875	0.00081944465637207
0.306	0.00082552433013916
0.306125	0.000848531723022461
0.30625	0.000788688659667969
0.306375	0.000817060470581055
0.3065	0.000838994979858398
0.306625	0.000835657119750977
0.30675	0.000792860984802246
0.306875	0.000804901123046875
0.307	0.000822782516479492
0.307125	0.000831961631774902
0.30725	0.000849246978759766
0.307375	0.00085294246673584
0.3075	0.000838518142700195
0.307625	0.000813722610473633
0.30775	0.000858664512634277
0.307875	0.000854849815368652
0.308	0.000804305076599121
0.308125	0.000793695449829102
0.30825	0.000830411911010742
0.308375	0.000833988189697266
0.3085	0.000821948051452637
0.308625	0.000781655311584473
0.30875	0.000767827033996582
0.308875	0.000806927680969238
0.309	0.000811576843261719
0.309125	0.00083315372467041
0.30925	0.000840187072753906
0.309375	0.000761985778808594
0.3095	0.000833988189697266
0.309625	0.000798821449279785
0.30975	0.000783085823059082
0.309875	0.000784158706665039
0.31	0.000821828842163086
0.310125	0.000822067260742188
0.31025	0.000840306282043457
0.310375	0.000870823860168457
0.3105	0.00079035758972168
0.310625	0.000809550285339355
0.31075	0.000764131546020508
0.310875	0.00079190731048584
0.311	0.000796079635620117
0.311125	0.000844717025756836
0.31125	0.000846505165100098
0.311375	0.000783324241638184
0.3115	0.000776886940002441
0.311625	0.000833272933959961
0.31175	0.000821352005004883
0.311875	0.000862836837768555
0.312	0.000867366790771484
0.312125	0.00076603889465332
0.31225	0.000795960426330566
0.312375	0.000805139541625977
0.3125	0.000779390335083008
0.312625	0.00081336498260498
0.31275	0.000814914703369141
0.312875	0.000776886940002441
0.313	0.000802397727966309
0.313125	0.000813961029052734
0.31325	0.000870943069458008
0.313375	0.000878214836120605
0.3135	0.000834107398986816
0.313625	0.00081181526184082
0.31375	0.00083005428314209
0.313875	0.000819087028503418
0.314	0.000815629959106445
0.314125	0.000816702842712402
0.31425	0.000842690467834473
0.314375	0.000820159912109375
0.3145	0.000830650329589844
0.314625	0.000812768936157227
0.31475	0.000809788703918457
0.314875	0.00081932544708252
0.315	0.000811100006103516
0.315125	0.000886201858520508
0.31525	0.000784993171691895
0.315375	0.000808596611022949
0.3155	0.000803112983703613
0.315625	0.000797629356384277
0.31575	0.000815272331237793
0.315875	0.000783681869506836
0.316	0.000774025917053223
0.316125	0.00077521800994873
0.31625	0.000796318054199219
0.316375	0.000777840614318848
0.3165	0.000762701034545898
0.316625	0.000792384147644043
0.31675	0.000825405120849609
0.316875	0.000759363174438477
0.317	0.000784635543823242
0.317125	0.000785231590270996
0.31725	0.000810384750366211
0.317375	0.000816822052001953
0.3175	0.000760197639465332
0.317625	0.000771641731262207
0.31775	0.00075078010559082
0.317875	0.000750899314880371
0.318	0.000751495361328125
0.318125	0.000784397125244141
0.31825	0.000785350799560547
0.318375	0.000773310661315918
0.3185	0.00075984001159668
0.318625	0.00075840950012207
0.31875	0.000785350799560547
0.318875	0.000802159309387207
0.319	0.000759720802307129
0.319125	0.000786066055297852
0.31925	0.000826597213745117
0.319375	0.000818371772766113
0.3195	0.000766396522521973
0.319625	0.000737905502319336
0.31975	0.00078284740447998
0.319875	0.000771403312683105
0.32	0.000786066055297852
0.320125	0.000776886940002441
0.32025	0.000769734382629395
0.320375	0.000764131546020508
0.3205	0.000771641731262207
0.320625	0.000789523124694824
0.32075	0.000774383544921875
0.320875	0.000738859176635742
0.321	0.000766396522521973
0.321125	0.000799775123596191
0.32125	0.00076901912689209
0.321375	0.000736713409423828
0.3215	0.000806808471679688
0.321625	0.000753164291381836
0.32175	0.000743746757507324
0.321875	0.000769615173339844
0.322	0.00078427791595459
0.322125	0.000771403312683105
0.32225	0.000744819641113281
0.322375	0.00073087215423584
0.3225	0.000781416893005371
0.322625	0.000851988792419434
0.32275	0.000779271125793457
0.322875	0.000738739967346191
0.323	0.000738739967346191
0.323125	0.000780701637268066
0.32325	0.000742673873901367
0.323375	0.000747919082641602
0.3235	0.00079190731048584
0.323625	0.000816941261291504
0.32375	0.000770926475524902
0.323875	0.000772714614868164
0.324	0.000747203826904297
0.324125	0.000787615776062012
0.32425	0.000802516937255859
0.324375	0.000737547874450684
0.3245	0.000700950622558594
0.324625	0.000710487365722656
0.32475	0.000779509544372559
0.324875	0.000841617584228516
0.325	0.00078129768371582
0.325125	0.00069272518157959
0.32525	0.000726580619812012
0.325375	0.000722885131835938
0.3255	0.000718355178833008
0.325625	0.000694394111633301
0.32575	0.000695705413818359
0.325875	0.000789046287536621
0.326	0.000826716423034668
0.326125	0.000731825828552246
0.32625	0.000698208808898926
0.326375	0.000734806060791016
0.3265	0.000795841217041016
0.326625	0.000773787498474121
0.32675	0.000662803649902344
0.326875	0.000667452812194824
0.327	0.000777482986450195
0.327125	0.000859856605529785
0.32725	0.000744104385375977
0.327375	0.00066828727722168
0.3275	0.000645041465759277
0.327625	0.000771880149841309
0.32775	0.000626087188720703
0.327875	0.000403881072998047
0.328	0.000504016876220703
0.328125	0.000645756721496582
0.32825	0.000840902328491211
0.328375	0.000455021858215332
0.3285	0.000431060791015625
0.328625	0.00047457218170166
0.32875	0.00090944766998291
0.328875	0.000386476516723633
0.329	-0.000219345092773438
0.329125	-0.000290513038635254
0.32925	0.0001678466796875
0.329375	0.000918030738830566
0.3295	0.000684499740600586
0.329625	0.000795483589172363
0.32975	0.000808000564575195
0.329875	0.000787615776062012
0.33	0.000735044479370117
0.330125	0.000645041465759277
0.33025	0.000660419464111328
0.330375	0.000800013542175293
0.3305	0.000836491584777832
0.330625	0.000726819038391113
0.33075	0.000655651092529297
0.330875	0.00071108341217041
0.331	0.000831723213195801
0.331125	0.000812172889709473
0.33125	0.000663280487060547
0.331375	0.000622272491455078
0.3315	0.000678777694702148
0.331625	0.000851988792419434
0.33175	0.000786185264587402
0.331875	0.000676751136779785
0.332	0.000749945640563965
0.332125	0.000837445259094238
0.33225	0.000829100608825684
0.332375	0.000674247741699219
0.3325	0.000679492950439453
0.332625	0.000781655311584473
0.33275	0.00083160400390625
0.332875	0.000698328018188477
0.333	0.000601768493652344
0.333125	0.000731110572814941
0.33325	0.000787019729614258
0.333375	0.000830650329589844
0.3335	0.000688672065734863
0.333625	0.000581026077270508
0.33375	0.000720977783203125
0.333875	0.00075066089630127
0.334	0.000741720199584961
0.334125	0.000641465187072754
0.33425	0.000746488571166992
0.334375	0.000821590423583984
0.3345	0.000782012939453125
0.334625	0.000730752944946289
0.33475	0.000650405883789062
0.334875	0.000764846801757812
0.335	0.000823259353637695
0.335125	0.000714659690856934
0.33525	0.000636696815490723
0.335375	0.000688910484313965
0.3355	0.000833272933959961
0.335625	0.000840544700622559
0.33575	0.00069737434387207
0.335875	0.000625371932983398
0.336	0.000756621360778809
0.336125	0.000733733177185059
0.33625	0.000722408294677734
0.336375	0.000704169273376465
0.3365	0.000713586807250977
0.336625	0.000804781913757324
0.33675	0.000809669494628906
0.336875	0.000747442245483398
0.337	0.000734210014343262
0.337125	0.000759005546569824
0.33725	0.000732421875
0.337375	0.000695347785949707
0.3375	0.000661015510559082
0.337625	0.000691652297973633
0.33775	0.000774025917053223
0.337875	0.00078880786895752
0.338	0.000710010528564453
0.338125	0.000700116157531738
0.33825	0.000692248344421387
0.338375	0.000722646713256836
0.3385	0.000701546669006348
0.338625	0.000668168067932129
0.33875	0.000725984573364258
0.338875	0.000746369361877441
0.339	0.000709891319274902
0.339125	0.000694870948791504
0.33925	0.000683069229125977
0.339375	0.000747323036193848
0.3395	0.000746369361877441
0.339625	0.000681638717651367
0.33975	0.000672817230224609
0.339875	0.000701069831848145
0.34	0.000758051872253418
0.340125	0.00073552131652832
0.34025	0.000675320625305176
0.340375	0.000681042671203613
0.3405	0.00068199634552002
0.340625	0.000719666481018066
0.34075	0.000728130340576172
0.340875	0.00066220760345459
0.341	0.000726222991943359
0.341125	0.000725507736206055
0.34125	0.00073552131652832
0.341375	0.000711798667907715
0.3415	0.000654697418212891
0.341625	0.00071406364440918
0.34175	0.000697135925292969
0.341875	0.000708937644958496
0.342	0.000677943229675293
0.342125	0.000730276107788086
0.34225	0.000721454620361328
0.342375	0.000667929649353027
0.3425	0.000700712203979492
0.342625	0.000716447830200195
0.34275	0.000731825828552246
0.342875	0.000769257545471191
0.343	0.000699043273925781
0.343125	0.00068962574005127
0.34325	0.000724911689758301
0.343375	0.000728249549865723
0.3435	0.000749588012695312
0.343625	0.000658869743347168
0.34375	0.0006561279296875
0.343875	0.000747084617614746
0.344	0.000756025314331055
0.344125	0.000710725784301758
0.34425	0.000712275505065918
0.344375	0.000722646713256836
0.3445	0.000702500343322754
0.344625	0.000701308250427246
0.34475	0.00068974494934082
0.344875	0.000640749931335449
0.345	0.000677227973937988
0.345125	0.000703811645507812
0.34525	0.00068974494934082
0.345375	0.000705718994140625
0.3455	0.000692367553710938
0.345625	0.000744819641113281
0.34575	0.000779867172241211
0.345875	0.000689387321472168
0.346	0.000663042068481445
0.346125	0.000700831413269043
0.34625	0.000711798667907715
0.346375	0.000707387924194336
0.3465	0.00067901611328125
0.346625	0.000652551651000977
0.34675	0.000738978385925293
0.346875	0.000712752342224121
0.347	0.000700592994689941
0.347125	0.000700592994689941
0.34725	0.000727653503417969
0.347375	0.000707387924194336
0.3475	0.000676870346069336
0.347625	0.000655174255371094
0.34775	0.000669360160827637
0.347875	0.000729799270629883
0.348	0.000702977180480957
0.348125	0.000691652297973633
0.34825	0.000651836395263672
0.348375	0.000671982765197754
0.3485	0.000712394714355469
0.348625	0.000742435455322266
0.34875	0.000690698623657227
0.348875	0.000681877136230469
0.349	0.000732898712158203
0.349125	0.000701189041137695
0.34925	0.000701785087585449
0.349375	0.000689983367919922
0.3495	0.000707745552062988
0.349625	0.000727534294128418
0.34975	0.000703692436218262
0.349875	0.000693798065185547
0.35	0.000668048858642578
0.350125	0.000718355178833008
0.35025	0.000733256340026855
0.350375	0.000671505928039551
0.3505	0.000676393508911133
0.350625	0.000678539276123047
0.35075	0.000735998153686523
0.350875	0.000712990760803223
0.351	0.000634551048278809
0.351125	0.000664353370666504
0.35125	0.000722050666809082
0.351375	0.000698328018188477
0.3515	0.000656247138977051
0.351625	0.000643610954284668
0.35175	0.000653743743896484
0.351875	0.000702738761901855
0.352	0.00067293643951416
0.352125	0.000649333000183105
0.35225	0.000675678253173828
0.352375	0.00072026252746582
0.3525	0.000739812850952148
0.352625	0.00065159797668457
0.35275	0.000694990158081055
0.352875	0.000663876533508301
0.353	0.00066983699798584
0.353125	0.00069725513458252
0.35325	0.000636816024780273
0.353375	0.000661015510559082
0.3535	0.000689268112182617
0.353625	0.000722765922546387
0.35375	0.000692605972290039
0.353875	0.000668525695800781
0.354	0.000665783882141113
0.354125	0.000673890113830566
0.35425	0.000653266906738281
0.354375	0.000643014907836914
0.3545	0.000683307647705078
0.354625	0.000695705413818359
0.35475	0.000648975372314453
0.354875	0.000636577606201172
0.355	0.000649213790893555
0.355125	0.000648260116577148
0.35525	0.000684976577758789
0.355375	0.000671029090881348
0.3555	0.000638127326965332
0.355625	0.00066065788269043
0.35575	0.000637173652648926
0.355875	0.000638842582702637
0.356	0.000630497932434082
0.356125	0.000712037086486816
0.35625	0.000709652900695801
0.356375	0.00071251392364502
0.3565	0.000717043876647949
0.356625	0.000734686851501465
0.35675	0.000739216804504395
0.356875	0.000700473785400391
0.357	0.000711560249328613
0.357125	0.000636100769042969
0.35725	0.000641584396362305
0.357375	0.000683069229125977
0.3575	0.000624656677246094
0.357625	0.000615477561950684
0.35775	0.000636577606201172
0.357875	0.00064384937286377
0.358	0.000697731971740723
0.358125	0.000708103179931641
0.35825	0.000631451606750488
0.358375	0.000673532485961914
0.3585	0.000702381134033203
0.358625	0.00069737434387207
0.35875	0.000688672065734863
0.358875	0.000638484954833984
0.359	0.000690817832946777
0.359125	0.000722050666809082
0.35925	0.000683307647705078
0.359375	0.000651955604553223
0.3595	0.000642895698547363
0.359625	0.000622749328613281
0.35975	0.000658631324768066
0.359875	0.000626444816589355
0.36	0.000617742538452148
0.360125	0.000628948211669922
0.36025	0.00064384937286377
0.360375	0.000694632530212402
0.3605	0.000676751136779785
0.360625	0.000641822814941406
0.36075	0.000702619552612305
0.360875	0.000672698020935059
0.361	0.000625133514404297
0.361125	0.000668048858642578
0.36125	0.000675201416015625
0.361375	0.000682234764099121
0.3615	0.000644326210021973
0.361625	0.000677585601806641
0.36175	0.000631213188171387
0.361875	0.000658631324768066
0.362	0.000635743141174316
0.362125	0.000620603561401367
0.36225	0.000640749931335449
0.362375	0.000664114952087402
0.3625	0.000661253929138184
0.362625	0.00065147876739502
0.36275	0.000681400299072266
0.362875	0.000679373741149902
0.363	0.000657796859741211
0.363125	0.000636458396911621
0.36325	0.00063621997833252
0.363375	0.000688791275024414
0.3635	0.000679612159729004
0.363625	0.000717878341674805
0.36375	0.000659584999084473
0.363875	0.000615477561950684
0.364	0.000699043273925781
0.364125	0.000665426254272461
0.36425	0.00063323974609375
0.364375	0.000661730766296387
0.3645	0.000656247138977051
0.364625	0.000689506530761719
0.36475	0.000671029090881348
0.364875	0.00065147876739502
0.365	0.000663876533508301
0.365125	0.000684380531311035
0.36525	0.000651717185974121
0.365375	0.000662326812744141
0.3655	0.000674605369567871
0.365625	0.000653743743896484
0.36575	0.000664710998535156
0.365875	0.000639796257019043
0.366	0.000649452209472656
0.366125	0.000646829605102539
0.36625	0.000681519508361816
0.366375	0.000626325607299805
0.3665	0.000645041465759277
0.366625	0.000662326812744141
0.36675	0.000661253929138184
0.366875	0.000652790069580078
0.367	0.00064551830291748
0.367125	0.000676512718200684
0.36725	0.000612378120422363
0.367375	0.000685214996337891
0.3675	0.000659584999084473
0.367625	0.000644922256469727
0.36775	0.000673532485961914
0.367875	0.000667810440063477
0.368	0.000687122344970703
0.368125	0.00071871280670166
0.36825	0.000762224197387695
0.368375	0.000660061836242676
0.3685	0.000684142112731934
0.368625	0.000659942626953125
0.36875	0.000666975975036621
0.368875	0.000669360160827637
0.369	0.000684976577758789
0.369125	0.000709295272827148
0.36925	0.000627279281616211
0.369375	0.000643014907836914
0.3695	0.000665783882141113
0.369625	0.000686883926391602
0.36975	0.000682234764099121
0.369875	0.000623583793640137
0.37	0.000633835792541504
0.370125	0.000657558441162109
0.37025	0.000666141510009766
0.370375	0.000678539276123047
0.3705	0.000681042671203613
0.370625	0.000736117362976074
0.37075	0.000690817832946777
0.370875	0.000684976577758789
0.371	0.000705480575561523
0.371125	0.000686526298522949
0.37125	0.000683188438415527
0.371375	0.000681042671203613
0.3715	0.000662803649902344
0.371625	0.000662565231323242
0.37175	0.000624895095825195
0.371875	0.000593662261962891
0.372	0.000667572021484375
0.372125	0.00059056282043457
0.37225	0.000642180442810059
0.372375	0.000656723976135254
0.3725	0.000643730163574219
0.372625	0.000639557838439941
0.37275	0.000682473182678223
0.372875	0.000671982765197754
0.373	0.000668168067932129
0.373125	0.000689148902893066
0.37325	0.000661015510559082
0.373375	0.000684976577758789
0.3735	0.000670313835144043
0.373625	0.000687003135681152
0.37375	0.000637650489807129
0.373875	0.000642061233520508
0.374	0.000627994537353516
0.374125	0.000664710998535156
0.37425	0.000692605972290039
0.374375	0.000629425048828125
0.3745	0.000674724578857422
0.374625	0.000678420066833496
0.37475	0.000659823417663574
0.374875	0.000660061836242676
0.375	0.000681877136230469
0.375125	0.000707626342773438
0.37525	0.00063633918762207
0.375375	0.000680685043334961
0.3755	0.000642657279968262
0.375625	0.00061953067779541
0.37575	0.000663518905639648
0.375875	0.00067603588104248
0.376	0.000664114952087402
0.376125	0.000627398490905762
0.37625	0.000640392303466797
0.376375	0.000671267509460449
0.3765	0.000620365142822266
0.376625	0.000635266304016113
0.37675	0.000659346580505371
0.376875	0.000606298446655273
0.377	0.000612854957580566
0.377125	0.000610470771789551
0.37725	0.00059211254119873
0.377375	0.000629544258117676
0.3775	0.000603199005126953
0.377625	0.000623345375061035
0.37775	0.000665783882141113
0.377875	0.000612616539001465
0.378	0.000679254531860352
0.378125	0.000660300254821777
0.37825	0.000635504722595215
0.378375	0.000666618347167969
0.3785	0.000666141510009766
0.378625	0.000661492347717285
0.37875	0.000622749328613281
0.378875	0.000700235366821289
0.379	0.000750422477722168
0.379125	0.000726461410522461
0.37925	0.000695466995239258
0.379375	0.000697731971740723
0.3795	0.000683188438415527
0.379625	0.000654458999633789
0.37975	0.000662922859191895
0.379875	0.000686407089233398
0.38	0.000706195831298828
0.380125	0.000670313835144043
0.38025	0.000697612762451172
0.380375	0.00067436695098877
0.3805	0.000712871551513672
0.380625	0.000719189643859863
0.38075	0.000720500946044922
0.380875	0.000706076622009277
0.381	0.00065159797668457
0.381125	0.000662684440612793
0.38125	0.000698685646057129
0.381375	0.000708699226379395
0.3815	0.000697851181030273
0.381625	0.000661015510559082
0.38175	0.000615596771240234
0.381875	0.000651001930236816
0.382	0.000673174858093262
0.382125	0.000715255737304688
0.38225	0.000685334205627441
0.382375	0.000679850578308105
0.3825	0.000660419464111328
0.382625	0.000669717788696289
0.38275	0.000641226768493652
0.382875	0.000605106353759766
0.383	0.000694990158081055
0.383125	0.000680088996887207
0.38325	0.000646591186523438
0.383375	0.000680685043334961
0.3835	0.000651001930236816
0.383625	0.000685930252075195
0.38375	0.000697970390319824
0.383875	0.000716209411621094
0.384	0.000732064247131348
0.384125	0.000711441040039062
0.38425	0.000681042671203613
0.384375	0.000699281692504883
0.3845	0.000709772109985352
0.384625	0.000696539878845215
0.38475	0.000676393508911133
0.384875	0.000711202621459961
0.385	0.000712394714355469
0.385125	0.000627636909484863
0.38525	0.000702738761901855
0.385375	0.000665545463562012
0.3855	0.000651240348815918
0.385625	0.000675559043884277
0.38575	0.00065159797668457
0.385875	0.000664114952087402
0.386	0.000658273696899414
0.386125	0.00066065788269043
0.38625	0.000649690628051758
0.386375	0.000661611557006836
0.3865	0.000649333000183105
0.386625	0.000722885131835938
0.38675	0.000665545463562012
0.386875	0.000668168067932129
0.387	0.000638008117675781
0.387125	0.00061333179473877
0.38725	0.00064551830291748
0.387375	0.000648975372314453
0.3875	0.000664472579956055
0.387625	0.00064241886138916
0.38775	0.000645279884338379
0.387875	0.000657439231872559
0.388	0.000649213790893555
0.388125	0.000686287879943848
0.38825	0.000660538673400879
0.388375	0.00062716007232666
0.3885	0.000665664672851562
0.388625	0.000649809837341309
0.38875	0.000631570816040039
0.388875	0.000618577003479004
0.389	0.000655293464660645
0.389125	0.000650882720947266
0.38925	0.000647068023681641
0.389375	0.000654101371765137
0.3895	0.000665068626403809
0.389625	0.000646352767944336
0.38975	0.000626564025878906
0.389875	0.000644445419311523
0.39	0.000666975975036621
0.390125	0.000675559043884277
0.39025	0.000604152679443359
0.390375	0.000640511512756348
0.3905	0.00061953067779541
0.390625	0.000597834587097168
0.39075	0.000651001930236816
0.390875	0.00059807300567627
0.391	0.000602364540100098
0.391125	0.000595331192016602
0.39125	0.000600934028625488
0.391375	0.000650525093078613
0.3915	0.000597000122070312
0.391625	0.000591158866882324
0.39175	0.000643491744995117
0.391875	0.000627517700195312
0.392	0.000633835792541504
0.392125	0.000571489334106445
0.39225	0.000558137893676758
0.392375	0.000575065612792969
0.3925	0.000601649284362793
0.392625	0.000580549240112305
0.39275	0.000568032264709473
0.392875	0.000568389892578125
0.393	0.000538825988769531
0.393125	0.000597953796386719
0.39325	0.000603437423706055
0.393375	0.000607490539550781
0.3935	0.00060737133026123
0.393625	0.000616669654846191
0.39375	0.000610470771789551
0.393875	0.000615715980529785
0.394	0.000602126121520996
0.394125	0.000603914260864258
0.39425	0.00058138370513916
0.394375	0.000613570213317871
0.3945	0.000646710395812988
0.394625	0.000626683235168457
0.39475	0.000651359558105469
0.394875	0.000607132911682129
0.395	0.000532150268554688
0.395125	0.00060880184173584
0.39525	0.000596404075622559
0.395375	0.000631451606750488
0.3955	0.000621795654296875
0.395625	0.000618577003479004
0.39575	0.000627994537353516
0.395875	0.000635147094726562
0.396	0.000661849975585938
0.396125	0.000667095184326172
0.39625	0.000667810440063477
0.396375	0.000645160675048828
0.3965	0.000633597373962402
0.396625	0.000641942024230957
0.39675	0.000582695007324219
0.396875	0.000597596168518066
0.397	0.000624179840087891
0.397125	0.00061798095703125
0.39725	0.000666260719299316
0.397375	0.000669121742248535
0.3975	0.000666618347167969
0.397625	0.000588297843933105
0.39775	0.000574231147766113
0.397875	0.000584840774536133
0.398	0.000630855560302734
0.398125	0.000626206398010254
0.39825	0.00059211254119873
0.398375	0.000626802444458008
0.3985	0.000568032264709473
0.398625	0.000575780868530273
0.39875	0.000614762306213379
0.398875	0.000574707984924316
0.399	0.000586271286010742
0.399125	0.000611424446105957
0.39925	0.000626921653747559
0.399375	0.000632882118225098
0.3995	0.000607609748840332
0.399625	0.000583529472351074
0.39975	0.000565886497497559
0.399875	0.000618815422058105
0.4	0.000574111938476562
0.400125	0.000600695610046387
0.40025	0.000591397285461426
0.400375	0.00060725212097168
0.4005	0.000581264495849609
0.400625	0.000596880912780762
0.40075	0.000640392303466797
0.400875	0.000588536262512207
0.401	0.000597000122070312
0.401125	0.000620365142822266
0.40125	0.000640034675598145
0.401375	0.00063776969909668
0.4015	0.000625967979431152
0.401625	0.000563979148864746
0.40175	0.000591397285461426
0.401875	0.000588417053222656
0.402	0.000631570816040039
0.402125	0.000605106353759766
0.40225	0.000559329986572266
0.402375	0.000548958778381348
0.4025	0.000565886497497559
0.402625	0.00060272216796875
0.40275	0.000603318214416504
0.402875	0.000640034675598145
0.403	0.000605940818786621
0.403125	0.000538825988769531
0.40325	0.000560760498046875
0.403375	0.000555872917175293
0.4035	0.000547289848327637
0.403625	0.000590085983276367
0.40375	0.000598788261413574
0.403875	0.000620841979980469
0.404	0.000565171241760254
0.404125	0.00060427188873291
0.40425	0.000550031661987305
0.404375	0.000539541244506836
0.4045	0.000619292259216309
0.404625	0.00055086612701416
0.40475	0.000622034072875977
0.404875	0.000547647476196289
0.405	0.00052952766418457
0.405125	0.000572085380554199
0.40525	0.000571608543395996
0.405375	0.000564932823181152
0.4055	0.000566005706787109
0.405625	0.000588655471801758
0.40575	0.000567913055419922
0.405875	0.000600576400756836
0.406	0.000560522079467773
0.406125	0.000536918640136719
0.40625	0.000557899475097656
0.406375	0.000579237937927246
0.4065	0.000595808029174805
0.406625	0.000525474548339844
0.40675	0.000553250312805176
0.406875	0.000595927238464355
0.407	0.00056767463684082
0.407125	0.000555992126464844
0.40725	0.000607013702392578
0.407375	0.00056159496307373
0.4075	0.000596761703491211
0.407625	0.000612974166870117
0.40775	0.000543594360351562
0.407875	0.000594854354858398
0.408	0.000545620918273926
0.408125	0.000561237335205078
0.40825	0.000596284866333008
0.408375	0.00055384635925293
0.4085	0.000580072402954102
0.408625	0.000573277473449707
0.40875	0.000563740730285645
0.408875	0.000566840171813965
0.409	0.000538468360900879
0.409125	0.000571370124816895
0.40925	0.000557422637939453
0.409375	0.000525593757629395
0.4095	0.000579357147216797
0.409625	0.000565052032470703
0.40975	0.000570893287658691
0.409875	0.000556111335754395
0.41	0.000555634498596191
0.410125	0.000540733337402344
0.41025	0.000566840171813965
0.410375	0.000570416450500488
0.4105	0.000594615936279297
0.410625	0.000528573989868164
0.41075	0.000555038452148438
0.410875	0.000573515892028809
0.411	0.000555157661437988
0.411125	0.000549435615539551
0.41125	0.000539064407348633
0.411375	0.000582456588745117
0.4115	0.000572323799133301
0.411625	0.000614643096923828
0.41175	0.000602602958679199
0.411875	0.000544428825378418
0.412	0.000489711761474609
0.412125	0.000548124313354492
0.41225	0.000528812408447266
0.412375	0.000574469566345215
0.4125	0.000587344169616699
0.412625	0.000541806221008301
0.41275	0.000543475151062012
0.412875	0.000547170639038086
0.413	0.000573277473449707
0.413125	0.000529289245605469
0.41325	0.000589609146118164
0.413375	0.000561356544494629
0.4135	0.00055849552154541
0.413625	0.000592589378356934
0.41375	0.000591158866882324
0.413875	0.000588297843933105
0.414	0.000572800636291504
0.414125	0.000544190406799316
0.41425	0.000564098358154297
0.414375	0.000559210777282715
0.4145	0.000524520874023438
0.414625	0.000554561614990234
0.41475	0.000552654266357422
0.414875	0.000562429428100586
0.415	0.000542283058166504
0.415125	0.000554442405700684
0.41525	0.000518441200256348
0.415375	0.000539064407348633
0.4155	0.000516653060913086
0.415625	0.000504612922668457
0.41575	0.000554680824279785
0.415875	0.000591039657592773
0.416	0.000548362731933594
0.416125	0.00054323673248291
0.41625	0.000530004501342773
0.416375	0.000486016273498535
0.4165	0.00052940845489502
0.416625	0.000506401062011719
0.41675	0.000527858734130859
0.416875	0.000511646270751953
0.417	0.000557303428649902
0.417125	0.000501036643981934
0.41725	0.00055694580078125
0.417375	0.000600934028625488
0.4175	0.000519514083862305
0.417625	0.000522494316101074
0.41775	0.000568032264709473
0.417875	0.000747561454772949
0.418	0.000712990760803223
0.418125	0.000713706016540527
0.41825	0.000752091407775879
0.418375	0.000753879547119141
0.4185	0.000754356384277344
0.418625	0.000759124755859375
0.41875	0.000754356384277344
0.418875	0.000729799270629883
0.419	0.000698447227478027
0.419125	0.000710964202880859
0.41925	0.000731587409973145
0.419375	0.00071108341217041
0.4195	0.000727653503417969
0.419625	0.000758647918701172
0.41975	0.000746250152587891
0.419875	0.000898957252502441
0.42	0.000921249389648438
0.420125	0.000961184501647949
0.42025	0.000930070877075195
0.420375	0.000889062881469727
0.4205	0.000927925109863281
0.420625	0.000922679901123047
0.42075	0.000891804695129395
0.420875	0.000855088233947754
0.421	0.000861525535583496
0.421125	0.000851631164550781
0.42125	0.000854611396789551
0.421375	0.000836849212646484
0.4215	0.00082850456237793
0.421625	0.000905990600585938
0.42175	0.000885128974914551
0.421875	0.000978946685791016
0.422	0.00117671489715576
0.422125	0.00116002559661865
0.42225	0.00119805335998535
0.422375	0.00112557411193848
0.4225	0.00112640857696533
0.422625	0.00111985206604004
0.42275	0.00110793113708496
0.422875	0.00102567672729492
0.423	0.00100934505462646
0.423125	0.00101017951965332
0.42325	0.000979065895080566
0.423375	0.00098884105682373
0.4235	0.000963568687438965
0.423625	0.000966906547546387
0.42375	0.00103271007537842
0.423875	0.00107848644256592
0.424	0.00126302242279053
0.424125	0.00135767459869385
0.42425	0.00131690502166748
0.424375	0.00132763385772705
0.4245	0.00133931636810303
0.424625	0.00130271911621094
0.42475	0.00127482414245605
0.424875	0.00126028060913086
0.425	0.00117301940917969
0.425125	0.00114214420318604
0.42525	0.00115287303924561
0.425375	0.00110852718353271
0.4255	0.00113511085510254
0.425625	0.00111520290374756
0.42575	0.00116193294525146
0.425875	0.00117671489715576
0.426	0.00126791000366211
0.426125	0.00146985054016113
0.42625	0.00149011611938477
0.426375	0.00148928165435791
0.4265	0.00149035453796387
0.426625	0.00148904323577881
0.42675	0.00146138668060303
0.426875	0.00142884254455566
0.427	0.00133800506591797
0.427125	0.00126326084136963
0.42725	0.00121903419494629
0.427375	0.00119984149932861
0.4275	0.00121462345123291
0.427625	0.00122964382171631
0.42775	0.00128984451293945
0.427875	0.00128304958343506
0.428	0.00139391422271729
0.428125	0.00160694122314453
0.42825	0.00164031982421875
0.428375	0.00167322158813477
0.4285	0.00167739391326904
0.428625	0.00170183181762695
0.42875	0.00164365768432617
0.428875	0.00149190425872803
0.429	0.00145936012268066
0.429125	0.00141537189483643
0.42925	0.00132894515991211
0.429375	0.00129294395446777
0.4295	0.00126922130584717
0.429625	0.00137984752655029
0.42975	0.00142061710357666
0.429875	0.0014348030090332
0.43	0.00151050090789795
0.430125	0.00167429447174072
0.43025	0.00176835060119629
0.430375	0.00180733203887939
0.4305	0.00173783302307129
0.430625	0.00173032283782959
0.43075	0.00173616409301758
0.430875	0.00169706344604492
0.431	0.00156831741333008
0.431125	0.00140547752380371
0.43125	0.00136113166809082
0.431375	0.00136613845825195
0.4315	0.00134408473968506
0.431625	0.00130581855773926
0.43175	0.00132477283477783
0.431875	0.00135219097137451
0.432	0.00152313709259033
0.432125	0.00159990787506104
0.43225	0.00163805484771729
0.432375	0.0017249584197998
0.4325	0.00185155868530273
0.432625	0.00200235843658447
0.43275	0.00163400173187256
0.432875	0.00159215927124023
0.433	0.00146865844726562
0.433125	0.00169181823730469
0.43325	0.00110793113708496
0.433375	0.000468611717224121
0.4335	0.000450968742370605
0.433625	0.000825405120849609
0.43375	0.00157499313354492
0.433875	0.00149178504943848
0.434	0.00155031681060791
0.434125	0.00164294242858887
0.43425	0.00203955173492432
0.434375	0.0021512508392334
0.4345	0.00214385986328125
0.434625	0.00212419033050537
0.43475	0.00215113162994385
0.434875	0.00204551219940186
0.435	0.00191879272460938
0.435125	0.00175309181213379
0.43525	0.00169909000396729
0.435375	0.00170481204986572
0.4355	0.00163519382476807
0.435625	0.00150930881500244
0.43575	0.00145852565765381
0.435875	0.0016096830368042
0.436	0.00179815292358398
0.436125	0.00180256366729736
0.43625	0.00191104412078857
0.436375	0.00208330154418945
0.4365	0.00209224224090576
0.436625	0.00215113162994385
0.43675	0.00210690498352051
0.436875	0.00204885005950928
0.437	0.00200581550598145
0.437125	0.00187563896179199
0.43725	0.00170683860778809
0.437375	0.00164878368377686
0.4375	0.00161921977996826
0.437625	0.00161063671112061
0.43775	0.00163364410400391
0.437875	0.00154650211334229
0.438	0.0015338659286499
0.438125	0.00163686275482178
0.43825	0.00184547901153564
0.438375	0.00209629535675049
0.4385	0.00215411186218262
0.438625	0.00218880176544189
0.43875	0.00222384929656982
0.438875	0.00220620632171631
0.439	0.00213277339935303
0.439125	0.00204193592071533
0.43925	0.00199174880981445
0.439375	0.00183427333831787
0.4395	0.00167417526245117
0.439625	0.00165736675262451
0.43975	0.00167953968048096
0.439875	0.00177013874053955
0.44	0.00173473358154297
0.440125	0.00174582004547119
0.44025	0.00181210041046143
0.440375	0.00216376781463623
0.4405	0.00235283374786377
0.440625	0.00236773490905762
0.44075	0.0024406909942627
0.440875	0.00238025188446045
0.441	0.00237619876861572
0.441125	0.0023123025894165
0.44125	0.00219333171844482
0.441375	0.00218212604522705
0.4415	0.0021291971206665
0.441625	0.00210535526275635
0.44175	0.00194799900054932
0.441875	0.00192713737487793
0.442	0.00196743011474609
0.442125	0.00199413299560547
0.44225	0.00204265117645264
0.442375	0.00206851959228516
0.4425	0.00219523906707764
0.442625	0.00222313404083252
0.44275	0.00226294994354248
0.442875	0.00226259231567383
0.443	0.00233829021453857
0.443125	0.00235462188720703
0.44325	0.0022737979888916
0.443375	0.00214314460754395
0.4435	0.00212979316711426
0.443625	0.0020749568939209
0.44375	0.00207805633544922
0.443875	0.00202155113220215
0.444	0.00191521644592285
0.444125	0.00195455551147461
0.44425	0.00197267532348633
0.444375	0.00199401378631592
0.4445	0.00212442874908447
0.444625	0.00217926502227783
0.44475	0.00226318836212158
0.444875	0.00226950645446777
0.445	0.00223195552825928
0.445125	0.00229918956756592
0.44525	0.0023047924041748
0.445375	0.00229620933532715
0.4455	0.00218963623046875
0.445625	0.00210678577423096
0.44575	0.00205409526824951
0.445875	0.00207734107971191
0.446	0.00207352638244629
0.446125	0.00202679634094238
0.44625	0.0019981861114502
0.446375	0.00201833248138428
0.4465	0.00210678577423096
0.446625	0.00221598148345947
0.44675	0.00225436687469482
0.446875	0.00220346450805664
0.447	0.00222468376159668
0.447125	0.0023120641708374
0.44725	0.0022658109664917
0.447375	0.00220942497253418
0.4475	0.00217711925506592
0.447625	0.00211834907531738
0.44775	0.00211894512176514
0.447875	0.00209450721740723
0.448	0.00207400321960449
0.448125	0.00207555294036865
0.44825	0.00209879875183105
0.448375	0.00209808349609375
0.4485	0.00211620330810547
0.448625	0.00216269493103027
0.44875	0.0021737813949585
0.448875	0.00222277641296387
0.449	0.00222671031951904
0.449125	0.00219583511352539
0.44925	0.00218605995178223
0.449375	0.00221884250640869
0.4495	0.00219690799713135
0.449625	0.00215089321136475
0.44975	0.00217092037200928
0.449875	0.00215160846710205
0.45	0.00208568572998047
0.450125	0.00203132629394531
0.45025	0.00206232070922852
0.450375	0.00208604335784912
0.4505	0.00212585926055908
0.450625	0.00210309028625488
0.45075	0.0020824670791626
0.450875	0.00211381912231445
0.451	0.00210738182067871
0.451125	0.00216948986053467
0.45125	0.0021442174911499
0.451375	0.00212907791137695
0.4515	0.00211477279663086
0.451625	0.00210154056549072
0.45175	0.00205457210540771
0.451875	0.00198948383331299
0.452	0.00205039978027344
0.452125	0.00205838680267334
0.45225	0.00198876857757568
0.452375	0.00200068950653076
0.4525	0.00195670127868652
0.452625	0.00203168392181396
0.45275	0.00213980674743652
0.452875	0.00212740898132324
0.453	0.00211882591247559
0.453125	0.00214529037475586
0.45325	0.00220143795013428
0.453375	0.00210559368133545
0.4535	0.0020986795425415
0.453625	0.00217926502227783
0.45375	0.00204706192016602
0.453875	0.00204753875732422
0.454	0.00205039978027344
0.454125	0.00200498104095459
0.45425	0.00202262401580811
0.454375	0.002022385597229
0.4545	0.002044677734375
0.454625	0.00196707248687744
0.45475	0.00197052955627441
0.454875	0.00203144550323486
0.455	0.00200200080871582
0.455125	0.00200736522674561
0.45525	0.00197267532348633
0.455375	0.00205910205841064
0.4555	0.00205540657043457
0.455625	0.00203907489776611
0.45575	0.00204682350158691
0.455875	0.00199568271636963
0.456	0.00198864936828613
0.456125	0.00198721885681152
0.45625	0.00193226337432861
0.456375	0.00193071365356445
0.4565	0.0018150806427002
0.456625	0.00187516212463379
0.45675	0.00197339057922363
0.456875	0.00198757648468018
0.457	0.00201320648193359
0.457125	0.00199687480926514
0.45725	0.00199353694915771
0.457375	0.00196552276611328
0.4575	0.00201892852783203
0.457625	0.00204706192016602
0.45775	0.00203478336334229
0.457875	0.00201678276062012
0.458	0.00201714038848877
0.458125	0.00198674201965332
0.45825	0.00200009346008301
0.458375	0.00195717811584473
0.4585	0.0018925666809082
0.458625	0.00188744068145752
0.45875	0.00194692611694336
0.458875	0.00190901756286621
0.459	0.00188899040222168
0.459125	0.00184190273284912
0.45925	0.00183522701263428
0.459375	0.00193274021148682
0.4595	0.00190293788909912
0.459625	0.0019221305847168
0.45975	0.00191307067871094
0.459875	0.00193655490875244
0.46	0.00189769268035889
0.460125	0.00192534923553467
0.46025	0.00193023681640625
0.460375	0.00187265872955322
0.4605	0.00187301635742188
0.460625	0.00178217887878418
0.46075	0.00175166130065918
0.460875	0.00182676315307617
0.461	0.00182604789733887
0.461125	0.0018002986907959
0.46125	0.00177299976348877
0.461375	0.0017620325088501
0.4615	0.00176358222961426
0.461625	0.0017540454864502
0.46175	0.00179958343505859
0.461875	0.00176453590393066
0.462	0.00175952911376953
0.462125	0.00183355808258057
0.46225	0.00178992748260498
0.462375	0.00178861618041992
0.4625	0.00178921222686768
0.462625	0.001778244972229
0.46275	0.00178837776184082
0.462875	0.00169837474822998
0.463	0.00166022777557373
0.463125	0.00165998935699463
0.46325	0.00166749954223633
0.463375	0.00167179107666016
0.4635	0.00168049335479736
0.463625	0.00171637535095215
0.46375	0.00169253349304199
0.463875	0.00163328647613525
0.464	0.00170373916625977
0.464125	0.00173807144165039
0.46425	0.00170087814331055
0.464375	0.00173783302307129
0.4645	0.00174045562744141
0.464625	0.00172531604766846
0.46475	0.00167405605316162
0.464875	0.00164961814880371
0.465	0.00158822536468506
0.465125	0.00153899192810059
0.46525	0.00148952007293701
0.465375	0.00146210193634033
0.4655	0.00151968002319336
0.465625	0.00153279304504395
0.46575	0.00149655342102051
0.465875	0.00150918960571289
0.466	0.00151979923248291
0.466125	0.00155699253082275
0.46625	0.00155436992645264
0.466375	0.00149643421173096
0.4665	0.00154781341552734
0.466625	0.00156843662261963
0.46675	0.00152647495269775
0.466875	0.00153446197509766
0.467	0.00150096416473389
0.467125	0.0014503002166748
0.46725	0.00148582458496094
0.467375	0.00144362449645996
0.4675	0.00137710571289062
0.467625	0.00138092041015625
0.46775	0.00144195556640625
0.467875	0.00144279003143311
0.468	0.00145995616912842
0.468125	0.00149631500244141
0.46825	0.00149476528167725
0.468375	0.00144565105438232
0.4685	0.00146257877349854
0.468625	0.00146245956420898
0.46875	0.00142800807952881
0.468875	0.00145828723907471
0.469	0.00140905380249023
0.469125	0.00131988525390625
0.46925	0.00130212306976318
0.469375	0.00130224227905273
0.4695	0.0012967586517334
0.469625	0.00125968456268311
0.46975	0.0012897253036499
0.469875	0.00128734111785889
0.47	0.0012434720993042
0.470125	0.00127947330474854
0.47025	0.00128567218780518
0.470375	0.00130558013916016
0.4705	0.00123226642608643
0.470625	0.00126683712005615
0.47075	0.00125658512115479
0.470875	0.00126898288726807
0.471	0.0012589693069458
0.471125	0.00124239921569824
0.47125	0.00121355056762695
0.471375	0.00122988224029541
0.4715	0.00120627880096436
0.471625	0.00118803977966309
0.47175	0.00119030475616455
0.471875	0.00123441219329834
0.472	0.00123333930969238
0.472125	0.00117099285125732
0.47225	0.00120639801025391
0.472375	0.0011909008026123
0.4725	0.00123906135559082
0.472625	0.00123298168182373
0.47275	0.00125956535339355
0.472875	0.00120127201080322
0.473	0.00121569633483887
0.473125	0.00118839740753174
0.47325	0.00108993053436279
0.473375	0.0010828971862793
0.4735	0.00108468532562256
0.473625	0.00106132030487061
0.47375	0.00106048583984375
0.473875	0.00102472305297852
0.474	0.00103259086608887
0.474125	0.00106644630432129
0.47425	0.00109231472015381
0.474375	0.00107121467590332
0.4745	0.00105834007263184
0.474625	0.00108635425567627
0.47475	0.00104689598083496
0.474875	0.00109755992889404
0.475	0.00110864639282227
0.475125	0.00112175941467285
0.47525	0.00102329254150391
0.475375	0.000980377197265625
0.4755	0.000887513160705566
0.475625	0.000853300094604492
0.47575	0.000907540321350098
0.475875	0.000884294509887695
0.476	0.000890612602233887
0.476125	0.000875473022460938
0.47625	0.000894784927368164
0.476375	0.000943899154663086
0.4765	0.000929594039916992
0.476625	0.000948905944824219
0.47675	0.000966668128967285
0.476875	0.000959396362304688
0.477	0.000944733619689941
0.477125	0.000921487808227539
0.47725	0.000846624374389648
0.477375	0.000725626945495605
0.4775	0.000751495361328125
0.477625	0.000735878944396973
0.47775	0.000717282295227051
0.477875	0.00075376033782959
0.478	0.000759243965148926
0.478125	0.000810742378234863
0.47825	0.000771760940551758
0.478375	0.000819802284240723
0.4785	0.000844836235046387
0.478625	0.000839710235595703
0.47875	0.000796914100646973
0.478875	0.000827550888061523
0.479	0.000816106796264648
0.479125	0.000740289688110352
0.47925	0.000786542892456055
0.479375	0.000675559043884277
0.4795	0.000622034072875977
0.479625	0.00062263011932373
0.47975	0.000591039657592773
0.479875	0.000619888305664062
0.48	0.000563502311706543
0.480125	0.00063633918762207
0.48025	0.000675201416015625
0.480375	0.000691413879394531
0.4805	0.000666022300720215
0.480625	0.00072479248046875
0.48075	0.000719308853149414
0.480875	0.000608921051025391
0.481	0.000622749328613281
0.481125	0.000600218772888184
0.48125	0.000657081604003906
0.481375	0.000376105308532715
0.4815	0.000222682952880859
0.481625	0.000282049179077148
0.48175	0.000253200531005859
0.481875	0.000255107879638672
0.482	0.000299692153930664
0.482125	0.000289082527160645
0.48225	0.000322103500366211
0.482375	0.00032353401184082
0.4825	0.000397562980651855
0.482625	0.000380873680114746
0.48275	0.000310540199279785
0.482875	0.000376582145690918
0.483	0.000373482704162598
0.483125	0.000359058380126953
0.48325	0.000301003456115723
0.483375	0.000177979469299316
0.4835	6.09159469604492e-05
0.483625	5.00679016113281e-05
0.48375	3.21865081787109e-06
0.483875	-4.55379486083984e-05
0.484	-4.26769256591797e-05
0.484125	9.89437103271484e-06
0.48425	5.73396682739258e-05
0.484375	0.000122904777526855
0.4845	0.000124812126159668
0.484625	0.000133156776428223
0.48475	0.000149011611938477
0.484875	0.000191926956176758
0.485	0.000150442123413086
0.485125	0.000130891799926758
0.48525	0.000114917755126953
0.485375	5.16176223754883e-05
0.4855	-8.63075256347656e-05
0.485625	-0.000131607055664062
0.48575	-0.000149846076965332
0.485875	-0.000182271003723145
0.486	-0.000190615653991699
0.486125	-9.13143157958984e-05
0.48625	-1.65700912475586e-05
0.486375	-6.79492950439453e-05
0.4865	5.19752502441406e-05
0.486625	4.13656234741211e-05
0.48675	-9.77516174316406e-06
0.486875	7.84397125244141e-05
0.487	4.16040420532227e-05
0.487125	3.61204147338867e-05
0.48725	-1.40666961669922e-05
0.487375	-8.95261764526367e-05
0.4875	-0.000152468681335449
0.487625	-0.000357508659362793
0.48775	-0.000333428382873535
0.487875	-0.000381231307983398
0.488	-0.000382304191589355
0.488125	-0.000363349914550781
0.48825	-0.00040125846862793
0.488375	-0.000321149826049805
0.4885	-0.000289201736450195
0.488625	-0.000186920166015625
0.48875	-0.000136733055114746
0.488875	-9.46521759033203e-05
0.489	-0.000115871429443359
0.489125	-0.000120997428894043
0.48925	-0.000143051147460938
0.489375	-0.000202655792236328
0.4895	-0.000182628631591797
0.489625	-0.000433206558227539
0.48975	-0.000573396682739258
0.489875	-0.000518798828125
0.49	-0.000522732734680176
0.490125	-0.000577092170715332
0.49025	-0.000549912452697754
0.490375	-0.00049889087677002
0.4905	-0.000298261642456055
0.490625	-0.000315189361572266
0.49075	-0.000333189964294434
0.490875	-0.000326752662658691
0.491	-0.000310182571411133
0.491125	-0.000323772430419922
0.49125	-0.000286698341369629
0.491375	-0.000354766845703125
0.4915	-0.000397801399230957
0.491625	-0.000473737716674805
0.49175	-0.000606656074523926
0.491875	-0.000659465789794922
0.492	-0.000641465187072754
0.492125	-0.000649213790893555
0.49225	-0.000639557838439941
0.492375	-0.000591516494750977
0.4925	-0.000640392303466797
0.492625	-0.000560641288757324
0.49275	-0.000507950782775879
0.492875	-0.000510334968566895
0.493	-0.00039827823638916
0.493125	-0.000322580337524414
0.49325	-0.000403404235839844
0.493375	-0.000441312789916992
0.4935	-0.000481605529785156
0.493625	-0.000563979148864746
0.49375	-0.000783681869506836
0.493875	-0.000803351402282715
0.494	-0.000845193862915039
0.494125	-0.00085747241973877
0.49425	-0.000870704650878906
0.494375	-0.000918745994567871
0.4945	-0.000763177871704102
0.494625	-0.000717997550964355
0.49475	-0.000738382339477539
0.494875	-0.000628471374511719
0.495	-0.000601053237915039
0.495125	-0.000635743141174316
0.49525	-0.000613093376159668
0.495375	-0.000590085983276367
0.4955	-0.000617384910583496
0.495625	-0.000630736351013184
0.49575	-0.000896334648132324
0.495875	-0.000929951667785645
0.496	-0.00100946426391602
0.496125	-0.00107550621032715
0.49625	-0.00103902816772461
0.496375	-0.00107431411743164
0.4965	-0.00101780891418457
0.496625	-0.000953197479248047
0.49675	-0.000901937484741211
0.496875	-0.00089573860168457
0.497	-0.000826001167297363
0.497125	-0.000738382339477539
0.49725	-0.00075829029083252
0.497375	-0.000718832015991211
0.4975	-0.000775814056396484
0.497625	-0.000783920288085938
0.49775	-0.000845670700073242
0.497875	-0.00102102756500244
0.498	-0.00105929374694824
0.498125	-0.00111687183380127
0.49825	-0.00110208988189697
0.498375	-0.00113582611083984
0.4985	-0.00114822387695312
0.498625	-0.00108981132507324
0.49875	-0.00107717514038086
0.498875	-0.00102043151855469
0.499	-0.000971198081970215
0.499125	-0.000920295715332031
0.49925	-0.000872135162353516
0.499375	-0.000909566879272461
0.4995	-0.000914216041564941
0.499625	-0.000918388366699219
0.49975	-0.000953435897827148
0.499875	-0.00118029117584229
0.5	-0.00119388103485107
0.500125	-0.00121712684631348
0.50025	-0.00125443935394287
0.500375	-0.00125432014465332
0.5005	-0.001273512840271
0.500625	-0.00124752521514893
0.50075	-0.00134897232055664
0.500875	-0.00122380256652832
0.501	-0.00117588043212891
0.501125	-0.00117981433868408
0.50125	-0.00111985206604004
0.501375	-0.00110745429992676
0.5015	-0.00110602378845215
0.501625	-0.00109279155731201
0.50175	-0.00112521648406982
0.501875	-0.00125157833099365
0.502	-0.00133872032165527
0.502125	-0.00136780738830566
0.50225	-0.00140178203582764
0.502375	-0.00140607357025146
0.5025	-0.00140094757080078
0.502625	-0.00148272514343262
0.50275	-0.00146782398223877
0.502875	-0.00141191482543945
0.503	-0.00136995315551758
0.503125	-0.00133967399597168
0.50325	-0.00125813484191895
0.503375	-0.00129830837249756
0.5035	-0.00128674507141113
0.503625	-0.00127995014190674
0.50375	-0.00126039981842041
0.503875	-0.00124108791351318
0.504	-0.00125646591186523
0.504125	-0.00125229358673096
0.50425	-0.00133311748504639
0.504375	-0.00131142139434814
0.5045	-0.00134778022766113
0.504625	-0.00136244297027588
0.50475	-0.00141870975494385
0.504875	-0.00139594078063965
0.505	-0.00138342380523682
0.505125	-0.00134158134460449
0.50525	-0.00130689144134521
0.505375	-0.00125300884246826
0.5055	-0.00121700763702393
0.505625	-0.00120222568511963
0.50575	-0.00122761726379395
0.505875	-0.00122511386871338
0.506	-0.00125634670257568
0.506125	-0.00129997730255127
0.50625	-0.0013202428817749
0.506375	-0.0013582706451416
0.5065	-0.00136983394622803
0.506625	-0.00139796733856201
0.50675	-0.00139760971069336
0.506875	-0.00140893459320068
0.507	-0.00139594078063965
0.507125	-0.00140011310577393
0.50725	-0.00135278701782227
0.507375	-0.00136613845825195
0.5075	-0.00133085250854492
0.507625	-0.00128161907196045
0.50775	-0.00127327442169189
0.507875	-0.00123274326324463
0.508	-0.00125002861022949
0.508125	-0.00127577781677246
0.50825	-0.00128042697906494
0.508375	-0.00132203102111816
0.5085	-0.00136113166809082
0.508625	-0.00138378143310547
0.50875	-0.00132954120635986
0.508875	-0.00138938426971436
0.509	-0.00135707855224609
0.509125	-0.00133967399597168
0.50925	-0.0013735294342041
0.509375	-0.0013350248336792
0.5095	-0.00133144855499268
0.509625	-0.00131678581237793
0.50975	-0.00128602981567383
0.509875	-0.00131046772003174
0.51	-0.00129735469818115
0.510125	-0.0012587308883667
0.51025	-0.00124716758728027
0.510375	-0.00121033191680908
0.5105	-0.0012667179107666
0.510625	-0.00125706195831299
0.51075	-0.00127947330474854
0.510875	-0.0012894868850708
0.511	-0.00130105018615723
0.511125	-0.00124239921569824
0.51125	-0.00123167037963867
0.511375	-0.00127208232879639
0.5115	-0.00119781494140625
0.511625	-0.0011981725692749
0.51175	-0.00122404098510742
0.511875	-0.00123095512390137
0.512	-0.00117433071136475
0.512125	-0.00124096870422363
0.51225	-0.00115776062011719
0.512375	-0.00119054317474365
0.5125	-0.00120270252227783
0.512625	-0.00117206573486328
0.51275	-0.00116384029388428
0.512875	-0.00112247467041016
0.513	-0.00113272666931152
0.513125	-0.00116217136383057
0.51325	-0.00116336345672607
0.513375	-0.00116682052612305
0.5135	-0.00114405155181885
0.513625	-0.00115251541137695
0.51375	-0.0011742115020752
0.513875	-0.0011594295501709
0.514	-0.00112652778625488
0.514125	-0.00109946727752686
0.51425	-0.00116622447967529
0.514375	-0.00110459327697754
0.5145	-0.00112617015838623
0.514625	-0.00116217136383057
0.51475	-0.00112259387969971
0.514875	-0.00108802318572998
0.515	-0.00114130973815918
0.515125	-0.00114071369171143
0.51525	-0.00111889839172363
0.515375	-0.00114095211029053
0.5155	-0.00113570690155029
0.515625	-0.00114667415618896
0.51575	-0.00111567974090576
0.515875	-0.00111961364746094
0.516	-0.00111794471740723
0.516125	-0.00109803676605225
0.51625	-0.00118005275726318
0.516375	-0.0011824369430542
0.5165	-0.00114190578460693
0.516625	-0.00115656852722168
0.51675	-0.00118327140808105
0.516875	-0.0011744499206543
0.517	-0.00114476680755615
0.517125	-0.00110781192779541
0.51725	-0.00118768215179443
0.517375	-0.0011591911315918
0.5175	-0.00112020969390869
0.517625	-0.00115633010864258
0.51775	-0.00115275382995605
0.517875	-0.0011063814163208
0.518	-0.00111603736877441
0.518125	-0.00114560127258301
0.51825	-0.001059889793396
0.518375	-0.00113093852996826
0.5185	-0.00110602378845215
0.518625	-0.00109684467315674
0.51875	-0.00117158889770508
0.518875	-0.00110960006713867
0.519	-0.00110411643981934
0.519125	-0.00110805034637451
0.51925	-0.00106704235076904
0.519375	-0.00107288360595703
0.5195	-0.00113201141357422
0.519625	-0.00106644630432129
0.51975	-0.00107347965240479
0.519875	-0.00106823444366455
0.52	-0.00105869770050049
0.520125	-0.00110054016113281
0.52025	-0.00108861923217773
0.520375	-0.00109386444091797
0.5205	-0.00103485584259033
0.520625	-0.00111258029937744
0.52075	-0.00102460384368896
0.520875	-0.00105547904968262
0.521	-0.00106441974639893
0.521125	-0.000998854637145996
0.52125	-0.00107407569885254
0.521375	-0.00103867053985596
0.5215	-0.00105023384094238
0.521625	-0.00106298923492432
0.52175	-0.0010608434677124
0.521875	-0.00106871128082275
0.522	-0.00103998184204102
0.522125	-0.00106298923492432
0.52225	-0.00108706951141357
0.522375	-0.00106751918792725
0.5225	-0.00108528137207031
0.522625	-0.00104415416717529
0.52275	-0.00104260444641113
0.522875	-0.00108492374420166
0.523	-0.00107228755950928
0.523125	-0.00101971626281738
0.52325	-0.000994682312011719
0.523375	-0.00103485584259033
0.5235	-0.00101053714752197
0.523625	-0.00101542472839355
0.52375	-0.00101315975189209
0.523875	-0.000999212265014648
0.524	-0.000983715057373047
0.524125	-0.00102829933166504
0.52425	-0.00101709365844727
0.524375	-0.000968098640441895
0.5245	-0.00102567672729492
0.524625	-0.00104331970214844
0.52475	-0.000903606414794922
0.524875	-0.000970363616943359
0.525	-0.00100278854370117
0.525125	-0.000922560691833496
0.52525	-0.000956296920776367
0.525375	-0.00101292133331299
0.5255	-0.00097811222076416
0.525625	-0.000938177108764648
0.52575	-0.000973701477050781
0.525875	-0.000957846641540527
0.526	-0.00100183486938477
0.526125	-0.000960350036621094
0.52625	-0.000966787338256836
0.526375	-0.00100326538085938
0.5265	-0.000928521156311035
0.526625	-0.000969171524047852
0.52675	-0.000968337059020996
0.526875	-0.000893473625183105
0.527	-0.000933289527893066
0.527125	-0.000948786735534668
0.52725	-0.000967264175415039
0.527375	-0.00091707706451416
0.5275	-0.000898361206054688
0.527625	-0.000916361808776855
0.52775	-0.000909924507141113
0.527875	-0.000881195068359375
0.528	-0.000866413116455078
0.528125	-0.00091397762298584
0.52825	-0.00094139575958252
0.528375	-0.000939726829528809
0.5285	-0.000915646553039551
0.528625	-0.000954508781433105
0.52875	-0.000902295112609863
0.528875	-0.000911474227905273
0.529	-0.00089561939239502
0.529125	-0.000892996788024902
0.52925	-0.000931859016418457
0.529375	-0.00092005729675293
0.5295	-0.00092923641204834
0.529625	-0.000847697257995605
0.52975	-0.00086057186126709
0.529875	-0.000845909118652344
0.53	-0.000903606414794922
0.530125	-0.000911474227905273
0.53025	-0.000883936882019043
0.530375	-0.000877022743225098
0.5305	-0.000921249389648438
0.530625	-0.000903129577636719
0.53075	-0.000900864601135254
0.530875	-0.000922322273254395
0.531	-0.000831127166748047
0.531125	-0.000947713851928711
0.53125	-0.000838875770568848
0.531375	-0.000855445861816406
0.5315	-0.000857234001159668
0.531625	-0.00082242488861084
0.53175	-0.000841617584228516
0.531875	-0.000855922698974609
0.532	-0.000853776931762695
0.532125	-0.000850319862365723
0.53225	-0.000934243202209473
0.532375	-0.00081944465637207
0.5325	-0.000800967216491699
0.532625	-0.00087583065032959
0.53275	-0.000871062278747559
0.532875	-0.000819206237792969
0.533	-0.00081789493560791
0.533125	-0.000797033309936523
0.53325	-0.000857234001159668
0.533375	-0.000864267349243164
0.5335	-0.000799059867858887
0.533625	-0.000763654708862305
0.53375	-0.000790834426879883
0.533875	-0.000846982002258301
0.534	-0.000794649124145508
0.534125	-0.000752806663513184
0.53425	-0.000768661499023438
0.534375	-0.000830650329589844
0.5345	-0.000789642333984375
0.534625	-0.000763654708862305
0.53475	-0.000766873359680176
0.534875	-0.000751852989196777
0.535	-0.000783443450927734
0.535125	-0.000790238380432129
0.53525	-0.000824213027954102
0.535375	-0.000795483589172363
0.5355	-0.000771045684814453
0.535625	-0.000789046287536621
0.53575	-0.000743985176086426
0.535875	-0.000844240188598633
0.536	-0.000969767570495605
0.536125	-0.000946044921875
0.53625	-0.000922679901123047
0.536375	-0.000702977180480957
0.5365	-0.000983834266662598
0.536625	-0.000922322273254395
0.53675	-0.000995159149169922
0.536875	-0.000660896301269531
0.537	-0.00103878974914551
