Time	Voltage
0.000125	0
0.00025	0
0.000375	0
0.0005	0
0.000625	0
0.00075	0
0.000875	0
0.001	0
0.001125	0
0.00125	0
0.001375	0
0.0015	0
0.001625	0
0.00175	0
0.001875	0
0.002	0
0.002125	0
0.00225	0
0.002375	0
0.0025	0
0.002625	0
0.00275	0
0.002875	0
0.003	0
0.003125	0
0.00325	0
0.003375	0
0.0035	0
0.003625	0
0.00375	0
0.003875	0
0.004	0
0.004125	0
0.00425	0
0.004375	0
0.0045	0
0.004625	0
0.00475	0
0.004875	0
0.005	0
0.005125	0
0.00525	0
0.005375	0
0.0055	0
0.005625	0
0.00575	0
0.005875	0
0.006	0
0.006125	0
0.00625	0
0.006375	0
0.0065	0
0.006625	0
0.00675	0
0.006875	0
0.007	0
0.007125	0
0.00725	0
0.007375	0
0.0075	0
0.007625	0
0.00775	0
0.007875	0
0.008	0
0.008125	0
0.00825	0
0.008375	0
0.0085	0
0.008625	0
0.00875	0
0.008875	0
0.009	0
0.009125	0
0.00925	0
0.009375	0
0.0095	0
0.009625	0
0.00975	0
0.009875	0
0.01	0
0.010125	0
0.01025	0
0.010375	0
0.0105	0
0.010625	0
0.01075	0
0.010875	0
0.011	0
0.011125	0
0.01125	0
0.011375	0
0.0115	0
0.011625	0
0.01175	0
0.011875	0
0.012	0
0.012125	0
0.01225	0
0.012375	0
0.0125	0
0.012625	0
0.01275	0
0.012875	0
0.013	0
0.013125	0
0.01325	0
0.013375	0
0.0135	0
0.013625	0
0.01375	0
0.013875	0
0.014	0
0.014125	0
0.01425	0
0.014375	0
0.0145	0
0.014625	0
0.01475	0
0.014875	0
0.015	0
0.015125	0
0.01525	0
0.015375	0
0.0155	0
0.015625	0
0.01575	0
0.015875	0
0.016	0
0.016125	0
0.01625	0
0.016375	0
0.0165	0
0.016625	0
0.01675	0
0.016875	0
0.017	0
0.017125	0
0.01725	0
0.017375	0
0.0175	0
0.017625	0
0.01775	0
0.017875	0
0.018	0
0.018125	0
0.01825	0
0.018375	0
0.0185	0
0.018625	0
0.01875	0
0.018875	0
0.019	0
0.019125	0
0.01925	0
0.019375	0
0.0195	0
0.019625	0
0.01975	0
0.019875	0
0.02	0
0.020125	0
0.02025	0
0.020375	0
0.0205	0
0.020625	0
0.02075	0
0.020875	0
0.021	0
0.021125	0
0.02125	0
0.021375	0
0.0215	0
0.021625	0
0.02175	0
0.021875	0
0.022	0
0.022125	0
0.02225	0
0.022375	0
0.0225	0
0.022625	0
0.02275	0
0.022875	0
0.023	0
0.023125	0
0.02325	0
0.023375	0
0.0235	0
0.023625	0
0.02375	0
0.023875	0
0.024	0
0.024125	0
0.02425	0
0.024375	0
0.0245	0
0.024625	0
0.02475	0
0.024875	0
0.025	0
0.025125	0
0.02525	0
0.025375	0
0.0255	0
0.025625	0
0.02575	0
0.025875	0
0.026	0
0.026125	0
0.02625	0
0.026375	0
0.0265	0
0.026625	0
0.02675	0
0.026875	0
0.027	0
0.027125	0
0.02725	0
0.027375	0
0.0275	0
0.027625	0
0.02775	0
0.027875	0
0.028	0
0.028125	0
0.02825	0
0.028375	0
0.0285	0
0.028625	0
0.02875	0
0.028875	0
0.029	0
0.029125	0
0.02925	0
0.029375	0
0.0295	0
0.029625	0
0.02975	0
0.029875	0
0.03	0
0.030125	0
0.03025	0
0.030375	0
0.0305	0
0.030625	0
0.03075	0
0.030875	0
0.031	-1.19209289550781e-07
0.031125	1.19209289550781e-07
0.03125	-1.19209289550781e-07
0.031375	2.38418579101562e-07
0.0315	-2.38418579101562e-07
0.031625	3.57627868652344e-07
0.03175	-4.76837158203125e-07
0.031875	5.96046447753906e-07
0.032	-7.15255737304688e-07
0.032125	8.34465026855469e-07
0.03225	-1.07288360595703e-06
0.032375	1.43051147460938e-06
0.0325	-2.14576721191406e-06
0.032625	3.69548797607422e-06
0.03275	-1.47819519042969e-05
0.032875	-6.17504119873047e-05
0.033	-7.70092010498047e-05
0.033125	-9.72747802734375e-05
0.03325	-0.000113129615783691
0.033375	-0.00013124942779541
0.0335	-0.000148415565490723
0.033625	-0.000164389610290527
0.03375	-0.000180840492248535
0.033875	-0.000194072723388672
0.034	-0.000204086303710938
0.034125	-0.000221490859985352
0.03425	-0.000243663787841797
0.034375	-0.000270724296569824
0.0345	-0.000285625457763672
0.034625	-0.000300884246826172
0.03475	-0.000314116477966309
0.034875	-0.000329494476318359
0.035	-0.000343680381774902
0.035125	-0.000372409820556641
0.03525	-0.000387668609619141
0.035375	-0.000403285026550293
0.0355	-0.000410318374633789
0.035625	-0.000408172607421875
0.03575	-0.000419974327087402
0.035875	-0.000446200370788574
0.036	-0.000482439994812012
0.036125	-0.000488400459289551
0.03625	-0.00050652027130127
0.036375	-0.000522494316101074
0.0365	-0.000539064407348633
0.036625	-0.00056004524230957
0.03675	-0.000556349754333496
0.036875	-0.000596880912780762
0.037	-0.000609755516052246
0.037125	-0.000623464584350586
0.03725	-0.000640273094177246
0.037375	-0.000656008720397949
0.0375	-0.000659704208374023
0.037625	-0.000689148902893066
0.03775	-0.000709176063537598
0.037875	-0.000717043876647949
0.038	-0.000733613967895508
0.038125	-0.000736832618713379
0.03825	-0.000764012336730957
0.038375	-0.000763058662414551
0.0385	-0.000775933265686035
0.038625	-0.000760078430175781
0.03875	-0.000814080238342285
0.038875	-0.000822663307189941
0.039	-0.000824928283691406
0.039125	-0.000824332237243652
0.03925	-0.000727415084838867
0.039375	-0.000745058059692383
0.0395	-0.000742793083190918
0.039625	-0.000751733779907227
0.03975	-0.000756502151489258
0.039875	-0.000771999359130859
0.04	-0.000792622566223145
0.040125	-0.000806927680969238
0.04025	-0.000831961631774902
0.040375	-0.000838518142700195
0.0405	-0.000847578048706055
0.040625	-0.000846266746520996
0.04075	-0.000886321067810059
0.040875	-0.000883817672729492
0.041	-0.000859737396240234
0.041125	-0.000924348831176758
0.04125	-0.000801920890808105
0.041375	-0.000736594200134277
0.0415	-0.000748991966247559
0.041625	-0.000757575035095215
0.04175	-0.000778079032897949
0.041875	-0.000745058059692383
0.042	-0.000776171684265137
0.042125	-0.000756263732910156
0.04225	-0.000775575637817383
0.042375	-0.000768899917602539
0.0425	-0.000774264335632324
0.042625	-0.000765204429626465
0.04275	-0.000770688056945801
0.042875	-0.000821113586425781
0.043	-0.000808835029602051
0.043125	-0.00084388256072998
0.04325	-0.00073695182800293
0.043375	-0.00059807300567627
0.0435	-0.00059819221496582
0.043625	-0.000616669654846191
0.04375	-0.00060570240020752
0.043875	-0.000589966773986816
0.044	-0.000619053840637207
0.044125	-0.000599026679992676
0.04425	-0.000596284866333008
0.044375	-0.000588417053222656
0.0445	-0.000569462776184082
0.044625	-0.000587701797485352
0.04475	-0.000566482543945312
0.044875	-0.000597715377807617
0.045	-0.000576138496398926
0.045125	-0.000576138496398926
0.04525	-0.000536084175109863
0.045375	-0.000345110893249512
0.0455	-0.000321507453918457
0.045625	-0.000295400619506836
0.04575	-0.000313758850097656
0.045875	-0.000349164009094238
0.046	-0.000324249267578125
0.046125	-0.000318288803100586
0.04625	-0.000331997871398926
0.046375	-0.000311017036437988
0.0465	-0.000289440155029297
0.046625	-0.000338912010192871
0.04675	-0.000311017036437988
0.046875	-0.000275611877441406
0.047	-0.000290989875793457
0.047125	-0.000295519828796387
0.04725	-0.000313758850097656
0.047375	-0.000197529792785645
0.0475	-9.22679901123047e-05
0.047625	-7.2479248046875e-05
0.04775	-1.4185905456543e-05
0.047875	-6.03199005126953e-05
0.048	-7.30752944946289e-05
0.048125	-3.814697265625e-06
0.04825	-3.09944152832031e-05
0.048375	-5.30481338500977e-05
0.0485	-6.103515625e-05
0.048625	-6.07967376708984e-05
0.04875	-4.74452972412109e-05
0.048875	-3.50475311279297e-05
0.049	-3.27825546264648e-05
0.049125	-4.11272048950195e-05
0.04925	-8.79764556884766e-05
0.049375	-2.13384628295898e-05
0.0495	0.000156044960021973
0.049625	0.000203728675842285
0.04975	0.000178217887878418
0.049875	0.000213027000427246
0.05	0.000115513801574707
0.050125	0.000144362449645996
0.05025	0.000116348266601562
0.050375	0.000142931938171387
0.0505	0.000179409980773926
0.050625	0.000176668167114258
0.05075	0.000189542770385742
0.050875	0.000157594680786133
0.051	0.000198245048522949
0.051125	0.000157594680786133
0.05125	0.000258445739746094
0.051375	0.000186920166015625
0.0515	0.00030982494354248
0.051625	0.000446319580078125
0.05175	0.000387430191040039
0.051875	0.000421285629272461
0.052	0.000456571578979492
0.052125	0.00037693977355957
0.05225	0.000455021858215332
0.052375	0.000404834747314453
0.0525	0.000431418418884277
0.052625	0.000434398651123047
0.05275	0.000459671020507812
0.052875	0.000423073768615723
0.053	0.000471830368041992
0.053125	0.000462770462036133
0.05325	0.000404715538024902
0.053375	0.000454545021057129
0.0535	0.00051569938659668
0.053625	0.000732183456420898
0.05375	0.000634551048278809
0.053875	0.000684142112731934
0.054	0.000661969184875488
0.054125	0.000697135925292969
0.05425	0.000647187232971191
0.054375	0.000661373138427734
0.0545	0.000653862953186035
0.054625	0.000666022300720215
0.05475	0.000664234161376953
0.054875	0.000640749931335449
0.055	0.000693202018737793
0.055125	0.000697970390319824
0.05525	0.000740170478820801
0.055375	0.000741481781005859
0.0555	0.000709891319274902
0.055625	0.0008392333984375
0.05575	0.000902771949768066
0.055875	0.000847339630126953
0.056	0.00094151496887207
0.056125	0.000813603401184082
0.05625	0.000880718231201172
0.056375	0.000870466232299805
0.0565	0.000882506370544434
0.056625	0.000914573669433594
0.05675	0.000870347023010254
0.056875	0.00088202953338623
0.057	0.000863909721374512
0.057125	0.000918269157409668
0.05725	0.000823020935058594
0.057375	0.000936388969421387
0.0575	0.000887632369995117
0.057625	0.000992536544799805
0.05775	0.00109493732452393
0.057875	0.00110352039337158
0.058	0.00113499164581299
0.058125	0.0011523962020874
0.05825	0.00108420848846436
0.058375	0.00109755992889404
0.0585	0.00107133388519287
0.058625	0.00106871128082275
0.05875	0.00109493732452393
0.058875	0.00111174583435059
0.059	0.00111472606658936
0.059125	0.00108861923217773
0.05925	0.00107836723327637
0.059375	0.00109434127807617
0.0595	0.00109660625457764
0.059625	0.0011061429977417
0.05975	0.00122678279876709
0.059875	0.00123083591461182
0.06	0.00123226642608643
0.060125	0.00119912624359131
0.06025	0.00123798847198486
0.060375	0.00117003917694092
0.0605	0.00119221210479736
0.060625	0.00118982791900635
0.06075	0.00117862224578857
0.060875	0.00119614601135254
0.061	0.00123214721679688
0.061125	0.00117075443267822
0.06125	0.00120174884796143
0.061375	0.00119709968566895
0.0615	0.00121414661407471
0.061625	0.00118708610534668
0.06175	0.00137567520141602
0.061875	0.00144374370574951
0.062	0.00139093399047852
0.062125	0.00142490863800049
0.06225	0.00142037868499756
0.062375	0.00144588947296143
0.0625	0.00141453742980957
0.062625	0.00141310691833496
0.06275	0.00139689445495605
0.062875	0.00138938426971436
0.063	0.00140154361724854
0.063125	0.00141370296478271
0.06325	0.00141143798828125
0.063375	0.0014115571975708
0.0635	0.00142514705657959
0.063625	0.00138843059539795
0.06375	0.00148248672485352
0.063875	0.00163912773132324
0.064	0.0016094446182251
0.064125	0.00163733959197998
0.06425	0.0016019344329834
0.064375	0.00159871578216553
0.0645	0.00160062313079834
0.064625	0.00162112712860107
0.06475	0.0016942024230957
0.064875	0.00171709060668945
0.065	0.00173699855804443
0.065125	0.00176131725311279
0.06525	0.00182080268859863
0.065375	0.00189769268035889
0.0655	0.00192523002624512
0.065625	0.00199019908905029
0.06575	0.00201022624969482
0.065875	0.00226271152496338
0.066	0.00232028961181641
0.066125	0.0024101734161377
0.06625	0.00246298313140869
0.066375	0.00250244140625
0.0665	0.00253057479858398
0.066625	0.00259125232696533
0.06675	0.00264060497283936
0.066875	0.002693772315979
0.067	0.00275182723999023
0.067125	0.00284755229949951
0.06725	0.00281929969787598
0.067375	0.00290703773498535
0.0675	0.00292134284973145
0.067625	0.00300788879394531
0.06775	0.00299131870269775
0.067875	0.00316512584686279
0.068	0.00331878662109375
0.068125	0.00334179401397705
0.06825	0.00338399410247803
0.068375	0.00337982177734375
0.0685	0.00345265865325928
0.068625	0.00343406200408936
0.06875	0.00353169441223145
0.068875	0.00358104705810547
0.069	0.00357508659362793
0.069125	0.00360953807830811
0.06925	0.00371468067169189
0.069375	0.00374734401702881
0.0695	0.0037611722946167
0.069625	0.00375127792358398
0.06975	0.0037761926651001
0.069875	0.00381672382354736
0.07	0.00395309925079346
0.070125	0.00396811962127686
0.07025	0.00390112400054932
0.070375	0.00390243530273438
0.0705	0.00388777256011963
0.070625	0.00391948223114014
0.07075	0.00392580032348633
0.070875	0.00385594367980957
0.071	0.00393319129943848
0.071125	0.00392818450927734
0.07125	0.00395548343658447
0.071375	0.00395417213439941
0.0715	0.00397682189941406
0.071625	0.00394523143768311
0.07175	0.00398933887481689
0.071875	0.0039445161819458
0.072	0.00415396690368652
0.072125	0.00427889823913574
0.07225	0.00427770614624023
0.072375	0.00423252582550049
0.0725	0.00431978702545166
0.072625	0.00427067279815674
0.07275	0.00436592102050781
0.072875	0.00435733795166016
0.073	0.00444996356964111
0.073125	0.00447487831115723
0.07325	0.00452041625976562
0.073375	0.00453305244445801
0.0735	0.00454986095428467
0.073625	0.00467681884765625
0.07375	0.00475037097930908
0.073875	0.00476789474487305
0.074	0.00485074520111084
0.074125	0.00508582592010498
0.07425	0.00505459308624268
0.074375	0.0052180290222168
0.0745	0.00516700744628906
0.074625	0.00524795055389404
0.07475	0.00519788265228271
0.074875	0.00521862506866455
0.075	0.0052039623260498
0.075125	0.00522077083587646
0.07525	0.0053173303604126
0.075375	0.00541806221008301
0.0755	0.00549137592315674
0.075625	0.00557708740234375
0.07575	0.00565576553344727
0.075875	0.00574052333831787
0.076	0.00585591793060303
0.076125	0.00612509250640869
0.07625	0.00620377063751221
0.076375	0.00626015663146973
0.0765	0.0063554048538208
0.076625	0.0064246654510498
0.07675	0.00645363330841064
0.076875	0.00654101371765137
0.077	0.0066535472869873
0.077125	0.00672554969787598
0.07725	0.00683093070983887
0.077375	0.0069127082824707
0.0775	0.0069197416305542
0.077625	0.00709962844848633
0.07775	0.00712192058563232
0.077875	0.00730609893798828
0.078	0.00729358196258545
0.078125	0.00772559642791748
0.07825	0.00802969932556152
0.078375	0.00812268257141113
0.0785	0.00817310810089111
0.078625	0.00824654102325439
0.07875	0.00836694240570068
0.078875	0.0084301233291626
0.079	0.0085151195526123
0.079125	0.00862157344818115
0.07925	0.00867915153503418
0.079375	0.0087660551071167
0.0795	0.00888752937316895
0.079625	0.00889301300048828
0.07975	0.00899672508239746
0.079875	0.0089646577835083
0.08	0.00907576084136963
0.080125	0.00910651683807373
0.08025	0.00945985317230225
0.080375	0.00948512554168701
0.0805	0.00953686237335205
0.080625	0.00953531265258789
0.08075	0.00962364673614502
0.080875	0.00959944725036621
0.081	0.00967729091644287
0.081125	0.00967001914978027
0.08125	0.00970065593719482
0.081375	0.00973176956176758
0.0815	0.00970613956451416
0.081625	0.00972330570220947
0.08175	0.00975239276885986
0.081875	0.00978875160217285
0.082	0.00979769229888916
0.082125	0.00983262062072754
0.08225	0.00998902320861816
0.082375	0.0100326538085938
0.0825	0.00999748706817627
0.082625	0.00999367237091064
0.08275	0.00998222827911377
0.082875	0.0100033283233643
0.083	0.00996875762939453
0.083125	0.0100301504135132
0.08325	0.0100301504135132
0.083375	0.00999188423156738
0.0835	0.00999629497528076
0.083625	0.00999140739440918
0.08375	0.0100382566452026
0.083875	0.0100327730178833
0.084	0.010057806968689
0.084125	0.0100497007369995
0.08425	0.0102047920227051
0.084375	0.0103960037231445
0.0845	0.0103520154953003
0.084625	0.0104258060455322
0.08475	0.0104281902313232
0.084875	0.010480523109436
0.085	0.0104573965072632
0.085125	0.0104804039001465
0.08525	0.0104384422302246
0.085375	0.0104697942733765
0.0855	0.0104430913925171
0.085625	0.0103745460510254
0.08575	0.0103805065155029
0.085875	0.0103191137313843
0.086	0.0103073120117188
0.086125	0.0103244781494141
0.08625	0.0102330446243286
0.086375	0.0103830099105835
0.0865	0.0103785991668701
0.086625	0.0103018283843994
0.08675	0.010256290435791
0.086875	0.0101556777954102
0.087	0.0100816488265991
0.087125	0.0100303888320923
0.08725	0.00992870330810547
0.087375	0.0098344087600708
0.0875	0.00974035263061523
0.087625	0.00961148738861084
0.08775	0.0095522403717041
0.087875	0.00943529605865479
0.088	0.00935828685760498
0.088125	0.00929176807403564
0.08825	0.00921320915222168
0.088375	0.00928986072540283
0.0885	0.00937402248382568
0.088625	0.00929629802703857
0.08875	0.00918769836425781
0.088875	0.00912332534790039
0.089	0.00906074047088623
0.089125	0.00902044773101807
0.08925	0.00892937183380127
0.089375	0.00885319709777832
0.0895	0.00880277156829834
0.089625	0.0087425708770752
0.08975	0.00873839855194092
0.089875	0.00865280628204346
0.09	0.00857448577880859
0.090125	0.00849461555480957
0.09025	0.0084068775177002
0.090375	0.00842189788818359
0.0905	0.00855576992034912
0.090625	0.00848531723022461
0.09075	0.00842535495758057
0.090875	0.00831305980682373
0.091	0.00822997093200684
0.091125	0.00819087028503418
0.09125	0.00811171531677246
0.091375	0.00806975364685059
0.0915	0.00796341896057129
0.091625	0.00788164138793945
0.09175	0.00778985023498535
0.091875	0.00766921043395996
0.092	0.00759983062744141
0.092125	0.00750231742858887
0.09225	0.00741028785705566
0.092375	0.00725901126861572
0.0925	0.00738704204559326
0.092625	0.00735533237457275
0.09275	0.00724518299102783
0.092875	0.00712466239929199
0.093	0.00700974464416504
0.093125	0.00697791576385498
0.09325	0.00684618949890137
0.093375	0.00677084922790527
0.0935	0.00662481784820557
0.093625	0.00645327568054199
0.09375	0.00621116161346436
0.093875	0.00608170032501221
0.094	0.00597143173217773
0.094125	0.0058213472366333
0.09425	0.00571107864379883
0.094375	0.00557208061218262
0.0945	0.00549781322479248
0.094625	0.00549817085266113
0.09475	0.00530815124511719
0.094875	0.00518035888671875
0.095	0.00501370429992676
0.095125	0.00486350059509277
0.09525	0.00481271743774414
0.095375	0.0046311616897583
0.0955	0.00455772876739502
0.095625	0.00438940525054932
0.09575	0.00420892238616943
0.095875	0.00409531593322754
0.096	0.00391185283660889
0.096125	0.00384867191314697
0.09625	0.00372552871704102
0.096375	0.0035632848739624
0.0965	0.00350451469421387
0.096625	0.00358104705810547
0.09675	0.00364422798156738
0.096875	0.00359714031219482
0.097	0.00357258319854736
0.097125	0.00358092784881592
0.09725	0.00357365608215332
0.097375	0.00351405143737793
0.0975	0.00352299213409424
0.097625	0.00349891185760498
0.09775	0.00353240966796875
0.097875	0.00349068641662598
0.098	0.00346410274505615
0.098125	0.0034794807434082
0.09825	0.00343406200408936
0.098375	0.00345933437347412
0.0985	0.00341522693634033
0.098625	0.00350463390350342
0.09875	0.00355899333953857
0.098875	0.00352263450622559
0.099	0.00355005264282227
0.099125	0.00352609157562256
0.09925	0.00347435474395752
0.099375	0.00346791744232178
0.0995	0.00348150730133057
0.099625	0.00347578525543213
0.09975	0.00345706939697266
0.099875	0.00343739986419678
0.1	0.00339663028717041
0.100125	0.00340259075164795
0.10025	0.00342154502868652
0.100375	0.00337398052215576
0.1005	0.0033576488494873
0.100625	0.0033881664276123
0.10075	0.0034787654876709
0.100875	0.00350189208984375
0.101	0.00348031520843506
0.101125	0.0034719705581665
0.10125	0.00348365306854248
0.101375	0.00343966484069824
0.1015	0.00339794158935547
0.101625	0.00342953205108643
0.10175	0.0034252405166626
0.101875	0.00342142581939697
0.102	0.00339782238006592
0.102125	0.00337743759155273
0.10225	0.00339317321777344
0.102375	0.00335001945495605
0.1025	0.00336575508117676
0.102625	0.00335967540740967
0.10275	0.00329244136810303
0.102875	0.00332438945770264
0.103	0.00330901145935059
0.103125	0.00331413745880127
0.10325	0.00328457355499268
0.103375	0.0032203197479248
0.1035	0.00325632095336914
0.103625	0.00323116779327393
0.10375	0.00325047969818115
0.103875	0.00323176383972168
0.104	0.00325608253479004
0.104125	0.00320243835449219
0.10425	0.00318348407745361
0.104375	0.00321352481842041
0.1045	0.00316107273101807
0.104625	0.00315165519714355
0.10475	0.003196120262146
0.104875	0.00333356857299805
0.105	0.00329983234405518
0.105125	0.00324499607086182
0.10525	0.0032193660736084
0.105375	0.00323426723480225
0.1055	0.00322091579437256
0.105625	0.00320637226104736
0.10575	0.00322854518890381
0.105875	0.00317966938018799
0.106	0.00314450263977051
0.106125	0.00311839580535889
0.10625	0.00314164161682129
0.106375	0.00311768054962158
0.1065	0.00313484668731689
0.106625	0.00314390659332275
0.10675	0.00309169292449951
0.106875	0.00314271450042725
0.107	0.00306904315948486
0.107125	0.00306606292724609
0.10725	0.00310099124908447
0.107375	0.00306272506713867
0.1075	0.00310039520263672
0.107625	0.00304996967315674
0.10775	0.00303924083709717
0.107875	0.00302708148956299
0.108	0.00304234027862549
0.108125	0.0030357837677002
0.10825	0.00297987461090088
0.108375	0.00295829772949219
0.1085	0.00294673442840576
0.108625	0.00293004512786865
0.10875	0.00291347503662109
0.108875	0.00300467014312744
0.109	0.00307047367095947
0.109125	0.00303113460540771
0.10925	0.00299382209777832
0.109375	0.00304162502288818
0.1095	0.00297069549560547
0.109625	0.00293540954589844
0.10975	0.00302731990814209
0.109875	0.00299954414367676
0.11	0.0029900074005127
0.110125	0.00302565097808838
0.11025	0.00296521186828613
0.110375	0.00297164916992188
0.1105	0.00296950340270996
0.110625	0.00297963619232178
0.11075	0.00293171405792236
0.110875	0.00290775299072266
0.111	0.00290381908416748
0.111125	0.00285029411315918
0.11125	0.00283849239349365
0.111375	0.00287318229675293
0.1115	0.00280022621154785
0.111625	0.00276100635528564
0.11175	0.00284016132354736
0.111875	0.00280940532684326
0.112	0.00284421443939209
0.112125	0.00285041332244873
0.11225	0.00278496742248535
0.112375	0.00273489952087402
0.1125	0.00276839733123779
0.112625	0.00273871421813965
0.11275	0.00273263454437256
0.112875	0.00274670124053955
0.113	0.00283706188201904
0.113125	0.00286030769348145
0.11325	0.00283372402191162
0.113375	0.00278913974761963
0.1135	0.00281667709350586
0.113625	0.00284993648529053
0.11375	0.00278031826019287
0.113875	0.0027613639831543
0.114	0.00278067588806152
0.114125	0.00275850296020508
0.11425	0.00275301933288574
0.114375	0.00275337696075439
0.1145	0.00278091430664062
0.114625	0.00273346900939941
0.11475	0.00269234180450439
0.114875	0.00273990631103516
0.115	0.00271022319793701
0.115125	0.00270199775695801
0.11525	0.00271439552307129
0.115375	0.00271785259246826
0.1155	0.00266051292419434
0.115625	0.00268387794494629
0.11575	0.00266838073730469
0.115875	0.00262010097503662
0.116	0.00259649753570557
0.116125	0.00259685516357422
0.11625	0.00260758399963379
0.116375	0.00255990028381348
0.1165	0.00256502628326416
0.116625	0.00253260135650635
0.11675	0.00256156921386719
0.116875	0.00255382061004639
0.117	0.00256633758544922
0.117125	0.00271213054656982
0.11725	0.00267565250396729
0.117375	0.00266420841217041
0.1175	0.00265491008758545
0.117625	0.00265800952911377
0.11775	0.00263535976409912
0.117875	0.00259041786193848
0.118	0.00263857841491699
0.118125	0.00258159637451172
0.11825	0.00254416465759277
0.118375	0.00256180763244629
0.1185	0.00256693363189697
0.118625	0.00251007080078125
0.11875	0.00254535675048828
0.118875	0.00252866744995117
0.119	0.00251519680023193
0.119125	0.00256407260894775
0.11925	0.00248837471008301
0.119375	0.00251364707946777
0.1195	0.00250113010406494
0.119625	0.00243914127349854
0.11975	0.00237131118774414
0.119875	0.00247478485107422
0.12	0.00246572494506836
0.120125	0.00241625308990479
0.12025	0.00240576267242432
0.120375	0.00241804122924805
0.1205	0.00244522094726562
0.120625	0.00239467620849609
0.12075	0.00238943099975586
0.120875	0.0024188756942749
0.121	0.00239121913909912
0.121125	0.00232625007629395
0.12125	0.00229752063751221
0.121375	0.00237107276916504
0.1215	0.00233602523803711
0.121625	0.00233995914459229
0.12175	0.00231564044952393
0.121875	0.00232112407684326
0.122	0.00232851505279541
0.122125	0.00224864482879639
0.12225	0.00230872631072998
0.122375	0.00222063064575195
0.1225	0.00226008892059326
0.122625	0.00231039524078369
0.12275	0.00230252742767334
0.122875	0.00214803218841553
0.123	0.00219559669494629
0.123125	0.00220406055450439
0.12325	0.00235295295715332
0.123375	0.0023036003112793
0.1235	0.00222373008728027
0.123625	0.0023353099822998
0.12375	0.00227510929107666
0.123875	0.00227022171020508
0.124	0.00220608711242676
0.124125	0.00228917598724365
0.12425	0.00222969055175781
0.124375	0.00215792655944824
0.1245	0.00214719772338867
0.124625	0.00223839282989502
0.12475	0.00235259532928467
0.124875	0.00211906433105469
0.125	0.00210011005401611
0.125125	0.00213956832885742
0.12525	0.0023036003112793
0.125375	0.00228273868560791
0.1255	0.00205028057098389
0.125625	0.00206542015075684
0.12575	0.00209736824035645
0.125875	0.00230133533477783
0.126	0.00214874744415283
0.126125	0.00211179256439209
0.12625	0.00198400020599365
0.126375	0.00213849544525146
0.1265	0.00212931632995605
0.126625	0.00210487842559814
0.12675	0.00210630893707275
0.126875	0.0019829273223877
0.127	0.0020298957824707
0.127125	0.00193178653717041
0.12725	0.00226175785064697
0.127375	0.00214195251464844
0.1275	0.00193965435028076
0.127625	0.00176668167114258
0.12775	0.00206208229064941
0.127875	0.00235474109649658
0.128	0.00203776359558105
0.128125	0.00171172618865967
0.12825	0.00176215171813965
0.128375	0.00217175483703613
0.1285	0.00222957134246826
0.128625	0.00188243389129639
0.12875	0.00163507461547852
0.128875	0.00192344188690186
0.129	0.00208365917205811
0.129125	0.00201225280761719
0.12925	0.00185668468475342
0.129375	0.00190818309783936
0.1295	0.00180172920227051
0.129625	0.00183367729187012
0.12975	0.00188612937927246
0.129875	0.00212132930755615
0.13	0.00185012817382812
0.130125	0.00155210494995117
0.13025	0.00162208080291748
0.130375	0.00196433067321777
0.1305	0.0023348331451416
0.130625	0.00176846981048584
0.13075	0.00149929523468018
0.130875	0.0012514591217041
0.131	0.00234067440032959
0.131125	0.00232410430908203
0.13125	0.00191116333007812
0.131375	0.000736474990844727
0.1315	0.00193822383880615
0.131625	0.00361323356628418
0.13175	0.00348925590515137
0.131875	0.00190877914428711
0.132	0.000454545021057129
0.132125	0.00304412841796875
0.13225	0.0036541223526001
0.132375	0.00327026844024658
0.1325	0.00065147876739502
0.132625	0.0013883113861084
0.13275	0.00285828113555908
0.132875	0.00314760208129883
0.133	0.0018993616104126
0.133125	0.000613093376159668
0.13325	0.00157773494720459
0.133375	0.00209033489227295
0.1335	0.00219523906707764
0.133625	0.000999927520751953
0.13375	0.00113904476165771
0.133875	0.00133728981018066
0.134	0.00198113918304443
0.134125	0.00165259838104248
0.13425	0.00126886367797852
0.134375	0.0012589693069458
0.1345	0.00143802165985107
0.134625	0.00169205665588379
0.13475	0.00144100189208984
0.134875	0.0014265775680542
0.135	0.00127792358398438
0.135125	0.00141739845275879
0.13525	0.00139355659484863
0.135375	0.0014488697052002
0.1355	0.00158953666687012
0.135625	0.00133466720581055
0.13575	0.00120699405670166
0.135875	0.00131428241729736
0.136	0.00160229206085205
0.136125	0.00157475471496582
0.13625	0.0011521577835083
0.136375	0.00114595890045166
0.1365	0.00139176845550537
0.136625	0.00160038471221924
0.13675	0.00127065181732178
0.136875	0.00116229057312012
0.137	0.00127005577087402
0.137125	0.00143253803253174
0.13725	0.00140905380249023
0.137375	0.0012509822845459
0.1375	0.00127232074737549
0.137625	0.0013120174407959
0.13775	0.00139617919921875
0.137875	0.00126087665557861
0.138	0.00128746032714844
0.138125	0.00129997730255127
0.13825	0.00126278400421143
0.138375	0.00118529796600342
0.1385	0.00121390819549561
0.138625	0.00126886367797852
0.13875	0.00131714344024658
0.138875	0.00110721588134766
0.139	0.00116658210754395
0.139125	0.00122678279876709
0.13925	0.00135385990142822
0.139375	0.00115537643432617
0.1395	0.00110387802124023
0.139625	0.00111043453216553
0.13975	0.00109684467315674
0.139875	0.00110840797424316
0.14	0.000928044319152832
0.140125	0.00109851360321045
0.14025	0.00104570388793945
0.140375	0.00114715099334717
0.1405	0.000900745391845703
0.140625	0.00104045867919922
0.14075	0.00101161003112793
0.140875	0.00116205215454102
0.141	0.00095367431640625
0.141125	0.000911355018615723
0.14125	0.00105834007263184
0.141375	0.0010383129119873
0.1415	0.00105762481689453
0.141625	0.000835061073303223
0.14175	0.00105476379394531
0.141875	0.00096893310546875
0.142	0.00105619430541992
0.142125	0.000931501388549805
0.14225	0.00100409984588623
0.142375	0.000940322875976562
0.1425	0.00100338459014893
0.142625	0.000982284545898438
0.14275	0.00092613697052002
0.142875	0.000931501388549805
0.143	0.000885844230651855
0.143125	0.00100147724151611
0.14325	0.00087273120880127
0.143375	0.000941991806030273
0.1435	0.000869512557983398
0.143625	0.000980019569396973
0.14375	0.000827908515930176
0.143875	0.000744462013244629
0.144	0.000786781311035156
0.144125	0.000783920288085938
0.14425	0.000722289085388184
0.144375	0.000744819641113281
0.1445	0.000768423080444336
0.144625	0.000751137733459473
0.14475	0.000716924667358398
0.144875	0.000739812850952148
0.145	0.000748753547668457
0.145125	0.000701546669006348
0.14525	0.00073397159576416
0.145375	0.000642776489257812
0.1455	0.000732779502868652
0.145625	0.000690937042236328
0.14575	0.000689268112182617
0.145875	0.000688076019287109
0.146	0.000780105590820312
0.146125	0.000751376152038574
0.14625	0.000632405281066895
0.146375	0.000649094581604004
0.1465	0.000681638717651367
0.146625	0.000733613967895508
0.14675	0.000615358352661133
0.146875	0.000553727149963379
0.147	0.000656723976135254
0.147125	0.000681757926940918
0.14725	0.000667333602905273
0.147375	0.000599503517150879
0.1475	0.00059664249420166
0.147625	0.000627875328063965
0.14775	0.000663638114929199
0.147875	0.000515580177307129
0.148	0.000434279441833496
0.148125	0.000450611114501953
0.14825	0.000571966171264648
0.148375	0.000481963157653809
0.1485	0.000387191772460938
0.148625	0.000401616096496582
0.14875	0.00048518180847168
0.148875	0.000484347343444824
0.149	0.000417351722717285
0.149125	0.000409841537475586
0.14925	0.000440120697021484
0.149375	0.000440478324890137
0.1495	0.000430822372436523
0.149625	0.000423789024353027
0.14975	0.000402331352233887
0.149875	0.000441670417785645
0.15	0.000418663024902344
0.150125	0.000446915626525879
0.15025	0.000435352325439453
0.150375	0.00039827823638916
0.1505	0.000389575958251953
0.150625	0.000401020050048828
0.15075	0.000436663627624512
0.150875	0.000396490097045898
0.151	0.00038599967956543
0.151125	0.00037992000579834
0.15125	0.00034332275390625
0.151375	0.000362873077392578
0.1515	0.000367283821105957
0.151625	0.000306010246276855
0.15175	0.000389575958251953
0.151875	0.000369668006896973
0.152	0.000255823135375977
0.152125	0.000221371650695801
0.15225	0.000180482864379883
0.152375	0.000242829322814941
0.1525	0.0002288818359375
0.152625	0.000193595886230469
0.15275	0.000156402587890625
0.152875	0.000187516212463379
0.153	0.00023198127746582
0.153125	0.000219464302062988
0.15325	0.000165343284606934
0.153375	0.000143885612487793
0.1535	0.000213623046875
0.153625	0.000220775604248047
0.15375	0.000207185745239258
0.153875	0.000116825103759766
0.154	0.000167131423950195
0.154125	0.000266790390014648
0.15425	0.000234007835388184
0.154375	9.87052917480469e-05
0.1545	0.000139117240905762
0.154625	0.000166058540344238
0.15475	0.000191569328308105
0.154875	0.000194072723388672
0.155	8.23736190795898e-05
0.155125	8.59498977661133e-05
0.15525	0.000148415565490723
0.155375	0.000218868255615234
0.1555	0.000130653381347656
0.155625	8.4996223449707e-05
0.15575	0.000102758407592773
0.155875	0.000198483467102051
0.156	0.000131487846374512
0.156125	-2.92062759399414e-05
0.15625	-7.62939453125e-06
0.156375	-4.05311584472656e-05
0.1565	1.99079513549805e-05
0.156625	3.23057174682617e-05
0.15675	-1.82390213012695e-05
0.156875	-5.88893890380859e-05
0.157	-3.9219856262207e-05
0.157125	1.9073486328125e-06
0.15725	-4.62532043457031e-05
0.157375	-4.10079956054688e-05
0.1575	-3.64780426025391e-05
0.157625	-3.99351119995117e-05
0.15775	1.44243240356445e-05
0.157875	-2.90870666503906e-05
0.158	-2.58684158325195e-05
0.158125	-0.000131845474243164
0.15825	-0.000187516212463379
0.158375	-0.000225424766540527
0.1585	-0.000250816345214844
0.158625	-0.000205755233764648
0.15875	-0.000208735466003418
0.158875	-0.000246047973632812
0.159	-0.000253438949584961
0.159125	-0.000184059143066406
0.15925	-0.000183343887329102
0.159375	-0.000162839889526367
0.1595	-0.000243425369262695
0.159625	-0.000262856483459473
0.15975	-0.000209450721740723
0.159875	-0.000193595886230469
0.16	-0.000200867652893066
0.160125	-0.000382065773010254
0.16025	-0.00037086009979248
0.160375	-0.000328779220581055
0.1605	-0.00030064582824707
0.160625	-0.0003814697265625
0.16075	-0.000410914421081543
0.160875	-0.000394582748413086
0.161	-0.000293135643005371
0.161125	-0.000317811965942383
0.16125	-0.000386953353881836
0.161375	-0.000399589538574219
0.1615	-0.000388979911804199
0.161625	-0.000322699546813965
0.16175	-0.000383615493774414
0.161875	-0.000382661819458008
0.162	-0.000395774841308594
0.162125	-0.000396609306335449
0.16225	-0.000611782073974609
0.162375	-0.00055241584777832
0.1625	-0.000634193420410156
0.162625	-0.000652194023132324
0.16275	-0.000651121139526367
0.162875	-0.000667095184326172
0.163	-0.000597715377807617
0.163125	-0.000635266304016113
0.16325	-0.000628471374511719
0.163375	-0.000624179840087891
0.1635	-0.000579476356506348
0.163625	-0.000571966171264648
0.16375	-0.000584959983825684
0.163875	-0.000657439231872559
0.164	-0.000623583793640137
0.164125	-0.000555753707885742
0.16425	-0.000746250152587891
0.164375	-0.000910162925720215
0.1645	-0.000910758972167969
0.164625	-0.000869631767272949
0.16475	-0.000911951065063477
0.164875	-0.000976085662841797
0.165	-0.00092613697052002
0.165125	-0.000846147537231445
0.16525	-0.000827312469482422
0.165375	-0.000882744789123535
0.1655	-0.000879764556884766
0.165625	-0.000839352607727051
0.16575	-0.000841975212097168
0.165875	-0.000895380973815918
0.166	-0.0010143518447876
0.166125	-0.000868916511535645
0.16625	-0.000858187675476074
0.166375	-0.00110709667205811
0.1665	-0.00120341777801514
0.166625	-0.00122928619384766
0.16675	-0.00108325481414795
0.166875	-0.00109469890594482
0.167	-0.00114083290100098
0.167125	-0.00112259387969971
0.16725	-0.00111925601959229
0.167375	-0.0010223388671875
0.1675	-0.00107121467590332
0.167625	-0.00109744071960449
0.16775	-0.00107860565185547
0.167875	-0.00105810165405273
0.168	-0.00107383728027344
0.168125	-0.00116622447967529
0.16825	-0.00109946727752686
0.168375	-0.00131464004516602
0.1685	-0.0013887882232666
0.168625	-0.00138008594512939
0.16875	-0.00138378143310547
0.168875	-0.00133657455444336
0.169	-0.0013737678527832
0.169125	-0.00136733055114746
0.16925	-0.00132834911346436
0.169375	-0.00127243995666504
0.1695	-0.00136780738830566
0.169625	-0.00139439105987549
0.16975	-0.00141143798828125
0.169875	-0.00139570236206055
0.17	-0.00131368637084961
0.170125	-0.00139498710632324
0.17025	-0.00135529041290283
0.170375	-0.0014803409576416
0.1705	-0.00152945518493652
0.170625	-0.00158333778381348
0.17075	-0.00165772438049316
0.170875	-0.00158882141113281
0.171	-0.00159311294555664
0.171125	-0.00160181522369385
0.17125	-0.00164520740509033
0.171375	-0.00159025192260742
0.1715	-0.00153839588165283
0.171625	-0.00155377388000488
0.17175	-0.00164639949798584
0.171875	-0.00168800354003906
0.172	-0.00153446197509766
0.172125	-0.00152993202209473
0.17225	-0.00160181522369385
0.172375	-0.00169408321380615
0.1725	-0.00183784961700439
0.172625	-0.00180017948150635
0.17275	-0.00179207324981689
0.172875	-0.00186717510223389
0.173	-0.00181055068969727
0.173125	-0.00171089172363281
0.17325	-0.00176835060119629
0.173375	-0.00187897682189941
0.1735	-0.00184226036071777
0.173625	-0.00172948837280273
0.17375	-0.00174558162689209
0.173875	-0.00175189971923828
0.174	-0.00185906887054443
0.174125	-0.00184416770935059
0.17425	-0.00180017948150635
0.174375	-0.00176167488098145
0.1745	-0.00198948383331299
0.174625	-0.00212657451629639
0.17475	-0.00199210643768311
0.174875	-0.00198674201965332
0.175	-0.00199294090270996
0.175125	-0.00198662281036377
0.17525	-0.00194501876831055
0.175375	-0.00195109844207764
0.1755	-0.0020146369934082
0.175625	-0.00200140476226807
0.17575	-0.00197601318359375
0.175875	-0.00202071666717529
0.176	-0.0020061731338501
0.176125	-0.00199854373931885
0.17625	-0.00192344188690186
0.176375	-0.00188851356506348
0.1765	-0.00206005573272705
0.176625	-0.00227963924407959
0.17675	-0.00221073627471924
0.176875	-0.00213289260864258
0.177	-0.00221121311187744
0.177125	-0.00230741500854492
0.17725	-0.00219273567199707
0.177375	-0.00216734409332275
0.1775	-0.00218737125396729
0.177625	-0.002227783203125
0.17775	-0.00225353240966797
0.177875	-0.00208926200866699
0.178	-0.00205338001251221
0.178125	-0.00215935707092285
0.17825	-0.00217461585998535
0.178375	-0.00207817554473877
0.1785	-0.00210297107696533
0.178625	-0.00247859954833984
0.17875	-0.00258290767669678
0.178875	-0.00258457660675049
0.179	-0.00260758399963379
0.179125	-0.00263702869415283
0.17925	-0.00271987915039062
0.179375	-0.00260984897613525
0.1795	-0.00257432460784912
0.179625	-0.0026315450668335
0.17975	-0.00263869762420654
0.179875	-0.00264763832092285
0.18	-0.00258839130401611
0.180125	-0.00259292125701904
0.18025	-0.00259578227996826
0.180375	-0.00266027450561523
0.1805	-0.00258779525756836
0.180625	-0.00265681743621826
0.18075	-0.00284957885742188
0.180875	-0.00290155410766602
0.181	-0.00286602973937988
0.181125	-0.00286459922790527
0.18125	-0.0028989315032959
0.181375	-0.00287759304046631
0.1815	-0.00290977954864502
0.181625	-0.00281810760498047
0.18175	-0.0028076171875
0.181875	-0.00283026695251465
0.182	-0.00284183025360107
0.182125	-0.00281286239624023
0.18225	-0.00284266471862793
0.182375	-0.00280988216400146
0.1825	-0.00277161598205566
0.182625	-0.00281155109405518
0.18275	-0.00299668312072754
0.182875	-0.0030364990234375
0.183	-0.0030440092086792
0.183125	-0.00299179553985596
0.18325	-0.0029681921005249
0.183375	-0.00299656391143799
0.1835	-0.00296342372894287
0.183625	-0.00299108028411865
0.18375	-0.00297856330871582
0.183875	-0.00295639038085938
0.184	-0.00298178195953369
0.184125	-0.00295174121856689
0.18425	-0.00291132926940918
0.184375	-0.00288832187652588
0.1845	-0.00287997722625732
0.184625	-0.0028759241104126
0.18475	-0.00307440757751465
0.184875	-0.00318312644958496
0.185	-0.00313436985015869
0.185125	-0.00316500663757324
0.18525	-0.00312447547912598
0.185375	-0.00309240818023682
0.1855	-0.00306820869445801
0.185625	-0.00307166576385498
0.18575	-0.00308454036712646
0.185875	-0.00305449962615967
0.186	-0.00304830074310303
0.186125	-0.00306284427642822
0.18625	-0.00306177139282227
0.186375	-0.00304234027862549
0.1865	-0.0030360221862793
0.186625	-0.00304138660430908
0.18675	-0.00309741497039795
0.186875	-0.0031125545501709
0.187	-0.00305700302124023
0.187125	-0.00315725803375244
0.18725	-0.00313687324523926
0.187375	-0.00314974784851074
0.1875	-0.00312745571136475
0.187625	-0.0030667781829834
0.18775	-0.00312602519989014
0.187875	-0.00310122966766357
0.188	-0.00313878059387207
0.188125	-0.00314998626708984
0.18825	-0.00309610366821289
0.188375	-0.00307309627532959
0.1885	-0.00306558609008789
0.188625	-0.00306487083435059
0.18875	-0.00303888320922852
0.188875	-0.00321245193481445
0.189	-0.00329911708831787
0.189125	-0.00325047969818115
0.18925	-0.00325500965118408
0.189375	-0.00325107574462891
0.1895	-0.00322866439819336
0.189625	-0.00322771072387695
0.18975	-0.00323522090911865
0.189875	-0.00318777561187744
0.19	-0.00323748588562012
0.190125	-0.00321781635284424
0.19025	-0.00318634510040283
0.190375	-0.0031660795211792
0.1905	-0.00314629077911377
0.190625	-0.00319254398345947
0.19075	-0.00314438343048096
0.190875	-0.00324022769927979
0.191	-0.00339353084564209
0.191125	-0.00339436531066895
0.19125	-0.00340282917022705
0.191375	-0.0033639669418335
0.1915	-0.00332415103912354
0.191625	-0.00342488288879395
0.19175	-0.00339829921722412
0.191875	-0.00332498550415039
0.192	-0.003334641456604
0.192125	-0.00332236289978027
0.19225	-0.00335836410522461
0.192375	-0.00333929061889648
0.1925	-0.00334703922271729
0.192625	-0.00332951545715332
0.19275	-0.00332260131835938
0.192875	-0.00335049629211426
0.193	-0.00352036952972412
0.193125	-0.00349724292755127
0.19325	-0.00353038311004639
0.193375	-0.00349938869476318
0.1935	-0.00346732139587402
0.193625	-0.00348103046417236
0.19375	-0.00348305702209473
0.193875	-0.00346457958221436
0.194	-0.00347745418548584
0.194125	-0.00348985195159912
0.19425	-0.0034712553024292
0.194375	-0.0034404993057251
0.1945	-0.00341212749481201
0.194625	-0.00340056419372559
0.19475	-0.00343096256256104
0.194875	-0.00339150428771973
0.195	-0.00357520580291748
0.195125	-0.0036463737487793
0.19525	-0.00363016128540039
0.195375	-0.00368118286132812
0.1955	-0.0036085844039917
0.195625	-0.0036238431930542
0.19575	-0.00361013412475586
0.195875	-0.00360500812530518
0.196	-0.00359964370727539
0.196125	-0.0035548210144043
0.19625	-0.00358998775482178
0.196375	-0.00363683700561523
0.1965	-0.00358343124389648
0.196625	-0.00356364250183105
0.19675	-0.00354659557342529
0.196875	-0.00357961654663086
0.197	-0.00356948375701904
0.197125	-0.00363600254058838
0.19725	-0.00363826751708984
0.197375	-0.00367295742034912
0.1975	-0.00373673439025879
0.197625	-0.00359535217285156
0.19775	-0.00358211994171143
0.197875	-0.0036395788192749
0.198	-0.00358402729034424
0.198125	-0.0035935640335083
0.19825	-0.00354635715484619
0.198375	-0.00354921817779541
0.1985	-0.0035630464553833
0.198625	-0.00353705883026123
0.19875	-0.00349915027618408
0.198875	-0.00349831581115723
0.199	-0.00351524353027344
0.199125	-0.0037534236907959
0.19925	-0.00376927852630615
0.199375	-0.00373291969299316
0.1995	-0.00371050834655762
0.199625	-0.00371789932250977
0.19975	-0.00374329090118408
0.199875	-0.00367045402526855
0.2	-0.0037003755569458
0.200125	-0.00373160839080811
0.20025	-0.00367319583892822
0.200375	-0.0036466121673584
0.2005	-0.0036693811416626
0.200625	-0.00366997718811035
0.20075	-0.00365197658538818
0.200875	-0.00359606742858887
0.201	-0.00360870361328125
0.201125	-0.00373435020446777
0.20125	-0.00386404991149902
0.201375	-0.00381267070770264
0.2015	-0.00380229949951172
0.201625	-0.00385153293609619
0.20175	-0.00383639335632324
0.201875	-0.0038219690322876
0.202	-0.00378382205963135
0.202125	-0.00375258922576904
0.20225	-0.00378549098968506
0.202375	-0.0037606954574585
0.2025	-0.00373375415802002
0.202625	-0.00373685359954834
0.20275	-0.00374519824981689
0.202875	-0.00371861457824707
0.203	-0.003700852394104
0.203125	-0.00375533103942871
0.20325	-0.00394213199615479
0.203375	-0.00392186641693115
0.2035	-0.0038827657699585
0.203625	-0.00386345386505127
0.20375	-0.0039132833480835
0.203875	-0.00390267372131348
0.204	-0.00385534763336182
0.204125	-0.00386607646942139
0.20425	-0.00385129451751709
0.204375	-0.00385236740112305
0.2045	-0.00385904312133789
0.204625	-0.00375139713287354
0.20475	-0.00380277633666992
0.204875	-0.00387310981750488
0.205	-0.00380945205688477
0.205125	-0.00377964973449707
0.20525	-0.00390207767486572
0.205375	-0.00406968593597412
0.2055	-0.00403249263763428
0.205625	-0.00404870510101318
0.20575	-0.00401592254638672
0.205875	-0.00400972366333008
0.206	-0.0039900541305542
0.206125	-0.00395572185516357
0.20625	-0.00396955013275146
0.206375	-0.0039362907409668
0.2065	-0.00393331050872803
0.206625	-0.00391590595245361
0.20675	-0.00386989116668701
0.206875	-0.00383543968200684
0.207	-0.00391674041748047
0.207125	-0.00387966632843018
0.20725	-0.00386941432952881
0.207375	-0.00406777858734131
0.2075	-0.0040595531463623
0.207625	-0.00410342216491699
0.20775	-0.00405597686767578
0.207875	-0.00402498245239258
0.208	-0.0040518045425415
0.208125	-0.0040736198425293
0.20825	-0.00405585765838623
0.208375	-0.00401735305786133
0.2085	-0.0040205717086792
0.208625	-0.00401818752288818
0.20875	-0.00401031970977783
0.208875	-0.00396168231964111
0.209	-0.00395369529724121
0.209125	-0.00394737720489502
0.20925	-0.00396919250488281
0.209375	-0.00411069393157959
0.2095	-0.00411248207092285
0.209625	-0.00412583351135254
0.20975	-0.00410902500152588
0.209875	-0.00409626960754395
0.21	-0.00413107872009277
0.210125	-0.00408482551574707
0.21025	-0.00408089160919189
0.210375	-0.00406813621520996
0.2105	-0.00399899482727051
0.210625	-0.0040205717086792
0.21075	-0.00403726100921631
0.210875	-0.00405514240264893
0.211	-0.00400221347808838
0.211125	-0.00399065017700195
0.21125	-0.00395703315734863
0.211375	-0.00413084030151367
0.2115	-0.00424838066101074
0.211625	-0.00417006015777588
0.21175	-0.00419902801513672
0.211875	-0.0042034387588501
0.212	-0.00417792797088623
0.212125	-0.00414931774139404
0.21225	-0.0041043758392334
0.212375	-0.00414490699768066
0.2125	-0.00417566299438477
0.212625	-0.00409531593322754
0.21275	-0.00410497188568115
0.212875	-0.00411593914031982
0.213	-0.00408387184143066
0.213125	-0.00411128997802734
0.21325	-0.00403976440429688
0.213375	-0.00409078598022461
0.2135	-0.00433039665222168
0.213625	-0.00428259372711182
0.21375	-0.00424277782440186
0.213875	-0.00422418117523193
0.214	-0.00426316261291504
0.214125	-0.00427126884460449
0.21425	-0.00424051284790039
0.214375	-0.00417995452880859
0.2145	-0.00421643257141113
0.214625	-0.00422894954681396
0.21475	-0.00414848327636719
0.214875	-0.00413227081298828
0.215	-0.00414848327636719
0.215125	-0.00414788722991943
0.21525	-0.00412845611572266
0.215375	-0.00405824184417725
0.2155	-0.00424873828887939
0.215625	-0.00438988208770752
0.21575	-0.00433516502380371
0.215875	-0.00429987907409668
0.216	-0.00431942939758301
0.216125	-0.00430083274841309
0.21625	-0.00428330898284912
0.216375	-0.0042872428894043
0.2165	-0.00425291061401367
0.216625	-0.00426435470581055
0.21675	-0.00426888465881348
0.216875	-0.00423526763916016
0.217	-0.00426161289215088
0.217125	-0.00420057773590088
0.21725	-0.00421178340911865
0.217375	-0.00414812564849854
0.2175	-0.0042043924331665
0.217625	-0.00441324710845947
0.21775	-0.00435793399810791
0.217875	-0.00445246696472168
0.218	-0.00433754920959473
0.218125	-0.00436091423034668
0.21825	-0.00438666343688965
0.218375	-0.00433361530303955
0.2185	-0.00434136390686035
0.218625	-0.00427031517028809
0.21875	-0.00430583953857422
0.218875	-0.00432693958282471
0.219	-0.00428152084350586
0.219125	-0.00422012805938721
0.21925	-0.00426399707794189
0.219375	-0.00430941581726074
0.2195	-0.00416386127471924
0.219625	-0.00418329238891602
0.21975	-0.00418782234191895
0.219875	-0.00417053699493408
0.22	-0.00421345233917236
0.220125	-0.00422501564025879
0.22025	-0.00419330596923828
0.220375	-0.00416839122772217
0.2205	-0.00423192977905273
0.220625	-0.00415885448455811
0.22075	-0.0041501522064209
0.220875	-0.00414657592773438
0.221	-0.00413799285888672
0.221125	-0.00414514541625977
0.22125	-0.00411343574523926
0.221375	-0.00408744812011719
0.2215	-0.00410258769989014
0.221625	-0.00405585765838623
0.22175	-0.0040128231048584
0.221875	-0.00402724742889404
0.222	-0.00405502319335938
0.222125	-0.00401556491851807
0.22225	-0.00398898124694824
0.222375	-0.0039907693862915
0.2225	-0.00401425361633301
0.222625	-0.00398015975952148
0.22275	-0.00398755073547363
0.222875	-0.00398552417755127
0.223	-0.00395715236663818
0.223125	-0.00399625301361084
0.22325	-0.00392305850982666
0.223375	-0.00394296646118164
0.2235	-0.00393521785736084
0.223625	-0.0039132833480835
0.22375	-0.00389754772186279
0.223875	-0.00391197204589844
0.224	-0.0039132833480835
0.224125	-0.00385546684265137
0.22425	-0.00385212898254395
0.224375	-0.0038301944732666
0.2245	-0.00378036499023438
0.224625	-0.00380182266235352
0.22475	-0.0038301944732666
0.224875	-0.00382781028747559
0.225	-0.00377523899078369
0.225125	-0.00375616550445557
0.22525	-0.00378048419952393
0.225375	-0.00376927852630615
0.2255	-0.00370562076568604
0.225625	-0.00370573997497559
0.22575	-0.00369858741760254
0.225875	-0.00370347499847412
0.226	-0.00370991230010986
0.226125	-0.00365650653839111
0.22625	-0.00362324714660645
0.226375	-0.00362670421600342
0.2265	-0.00367522239685059
0.226625	-0.00367391109466553
0.22675	-0.00359678268432617
0.226875	-0.00357401371002197
0.227	-0.00361466407775879
0.227125	-0.00362646579742432
0.22725	-0.0036005973815918
0.227375	-0.00352287292480469
0.2275	-0.00350606441497803
0.227625	-0.00347161293029785
0.22775	-0.00349259376525879
0.227875	-0.00353395938873291
0.228	-0.003487229347229
0.228125	-0.00338530540466309
0.22825	-0.00341618061065674
0.228375	-0.00351178646087646
0.2285	-0.00354647636413574
0.228625	-0.00344526767730713
0.22875	-0.0033564567565918
0.228875	-0.00335848331451416
0.229	-0.00351130962371826
0.229125	-0.00346910953521729
0.22925	-0.00338733196258545
0.229375	-0.00332307815551758
0.2295	-0.00342822074890137
0.229625	-0.00339555740356445
0.22975	-0.00326108932495117
0.229875	-0.00331783294677734
0.23	-0.00335526466369629
0.230125	-0.00340843200683594
0.23025	-0.00323450565338135
0.230375	-0.00324058532714844
0.2305	-0.00332725048065186
0.230625	-0.00336277484893799
0.23075	-0.00324928760528564
0.230875	-0.00312495231628418
0.231	-0.00322818756103516
0.231125	-0.00329923629760742
0.23125	-0.00337743759155273
0.231375	-0.00316452980041504
0.2315	-0.00307953357696533
0.231625	-0.0031810998916626
0.23175	-0.00328624248504639
0.231875	-0.00324594974517822
0.232	-0.003043532371521
0.232125	-0.00312650203704834
0.23225	-0.00309145450592041
0.232375	-0.00321435928344727
0.2325	-0.00314629077911377
0.232625	-0.0032811164855957
0.23275	-0.00305521488189697
0.232875	-0.00299477577209473
0.233	-0.0029456615447998
0.233125	-0.00314128398895264
0.23325	-0.00328671932220459
0.233375	-0.0029672384262085
0.2335	-0.00285100936889648
0.233625	-0.00286495685577393
0.23375	-0.00332188606262207
0.233875	-0.00316751003265381
0.234	-0.00288999080657959
0.234125	-0.00265097618103027
0.23425	-0.00299465656280518
0.234375	-0.0032203197479248
0.2345	-0.00302338600158691
0.234625	-0.00277853012084961
0.23475	-0.00268447399139404
0.234875	-0.00302255153656006
0.235	-0.00300502777099609
0.235125	-0.002968430519104
0.23525	-0.00277090072631836
0.235375	-0.00287163257598877
0.2355	-0.00280237197875977
0.235625	-0.00283348560333252
0.23575	-0.00307261943817139
0.235875	-0.00299882888793945
0.236	-0.002860426902771
0.236125	-0.00227510929107666
0.23625	-0.00283288955688477
0.236375	-0.00313317775726318
0.2365	-0.00337541103363037
0.236625	-0.00222110748291016
0.23675	-0.00222086906433105
0.236875	-0.0027543306350708
0.237	-0.00369942188262939
0.237125	-0.00265061855316162
0.23725	-0.000951170921325684
0.237375	-0.00120449066162109
0.2375	-0.00247311592102051
0.237625	-0.00387203693389893
0.23775	-0.00148928165435791
0.237875	-0.000924825668334961
0.238	-0.0010911226272583
0.238125	-0.0035327672958374
0.23825	-0.00305819511413574
0.238375	-0.00172185897827148
0.2385	-0.00115931034088135
0.238625	-0.00228619575500488
0.23875	-0.00359964370727539
0.238875	-0.00293087959289551
0.239	-0.00225687026977539
0.239125	-0.00191521644592285
0.23925	-0.00298738479614258
0.239375	-0.00295817852020264
0.2395	-0.00281322002410889
0.239625	-0.00211548805236816
0.23975	-0.00246918201446533
0.239875	-0.00269365310668945
0.24	-0.00279498100280762
0.240125	-0.00252139568328857
0.24025	-0.00246238708496094
0.240375	-0.00245809555053711
0.2405	-0.00239443778991699
0.240625	-0.00258481502532959
0.24075	-0.00261461734771729
0.240875	-0.00268149375915527
0.241	-0.0023198127746582
0.241125	-0.00230276584625244
0.24125	-0.00252640247344971
0.241375	-0.00275838375091553
0.2415	-0.00256812572479248
0.241625	-0.00223350524902344
0.24175	-0.00229275226593018
0.241875	-0.00249803066253662
0.242	-0.0026710033416748
0.242125	-0.00240778923034668
0.24225	-0.00227248668670654
0.242375	-0.00233578681945801
0.2425	-0.00255978107452393
0.242625	-0.0024871826171875
0.24275	-0.00237834453582764
0.242875	-0.00240659713745117
0.243	-0.0022890567779541
0.243125	-0.00235402584075928
0.24325	-0.00235426425933838
0.243375	-0.00244426727294922
0.2435	-0.00235319137573242
0.243625	-0.00224733352661133
0.24375	-0.00221133232116699
0.243875	-0.00241255760192871
0.244	-0.00244796276092529
0.244125	-0.00233232975006104
0.24425	-0.00213265419006348
0.244375	-0.00215029716491699
0.2445	-0.00235307216644287
0.244625	-0.00237667560577393
0.24475	-0.00216972827911377
0.244875	-0.00212705135345459
0.245	-0.00220966339111328
0.245125	-0.00230956077575684
0.24525	-0.0022585391998291
0.245375	-0.00212037563323975
0.2455	-0.00215113162994385
0.245625	-0.00222384929656982
0.24575	-0.00224757194519043
0.245875	-0.00213801860809326
0.246	-0.00215804576873779
0.246125	-0.00220596790313721
0.24625	-0.00220143795013428
0.246375	-0.00210034847259521
0.2465	-0.00213062763214111
0.246625	-0.0021442174911499
0.24675	-0.00227808952331543
0.246875	-0.00215637683868408
0.247	-0.00206279754638672
0.247125	-0.00204133987426758
0.24725	-0.00217640399932861
0.247375	-0.00218319892883301
0.2475	-0.00202679634094238
0.247625	-0.00201499462127686
0.24775	-0.00208735466003418
0.247875	-0.00214529037475586
0.248	-0.00207865238189697
0.248125	-0.00204312801361084
0.24825	-0.0019681453704834
0.248375	-0.0020369291305542
0.2485	-0.00203466415405273
0.248625	-0.00206851959228516
0.24875	-0.00204920768737793
0.248875	-0.00199317932128906
0.249	-0.00193119049072266
0.249125	-0.00195217132568359
0.24925	-0.0020369291305542
0.249375	-0.00203216075897217
0.2495	-0.0019383430480957
0.249625	-0.00187110900878906
0.24975	-0.00194501876831055
0.249875	-0.00199806690216064
0.25	-0.0020139217376709
0.250125	-0.00187969207763672
0.25025	-0.00185084342956543
0.250375	-0.00190854072570801
0.2505	-0.00198078155517578
0.250625	-0.00194954872131348
0.25075	-0.00182723999023438
0.250875	-0.00180625915527344
0.251	-0.00184750556945801
0.251125	-0.00193262100219727
0.25125	-0.00191009044647217
0.251375	-0.00183510780334473
0.2515	-0.00176584720611572
0.251625	-0.00183355808258057
0.25175	-0.00188171863555908
0.251875	-0.00190341472625732
0.252	-0.00181877613067627
0.252125	-0.00172817707061768
0.25225	-0.00180149078369141
0.252375	-0.00186467170715332
0.2525	-0.00185668468475342
0.252625	-0.00175714492797852
0.25275	-0.00172197818756104
0.252875	-0.00177681446075439
0.253	-0.00176882743835449
0.253125	-0.00175106525421143
0.25325	-0.00172615051269531
0.253375	-0.00172197818756104
0.2535	-0.00175607204437256
0.253625	-0.00172460079193115
0.25375	-0.00169861316680908
0.253875	-0.00174856185913086
0.254	-0.00177204608917236
0.254125	-0.00165736675262451
0.25425	-0.0016552209854126
0.254375	-0.00169503688812256
0.2545	-0.00174117088317871
0.254625	-0.00170230865478516
0.25475	-0.001686692237854
0.254875	-0.00162708759307861
0.255	-0.00169956684112549
0.255125	-0.00174117088317871
0.25525	-0.00163161754608154
0.255375	-0.00160753726959229
0.2555	-0.00159144401550293
0.255625	-0.00168943405151367
0.25575	-0.00162148475646973
0.255875	-0.00161564350128174
0.256	-0.00160777568817139
0.256125	-0.00162780284881592
0.25625	-0.0016247034072876
0.256375	-0.00154805183410645
0.2565	-0.001548171043396
0.256625	-0.00160515308380127
0.25675	-0.00158095359802246
0.256875	-0.00151324272155762
0.257	-0.00153625011444092
0.257125	-0.00157260894775391
0.25725	-0.00154626369476318
0.257375	-0.00152719020843506
0.2575	-0.00149738788604736
0.257625	-0.00148427486419678
0.25775	-0.0015559196472168
0.257875	-0.00156247615814209
0.258	-0.00158941745758057
0.258125	-0.00152873992919922
0.25825	-0.00150275230407715
0.258375	-0.00151181221008301
0.2585	-0.00151097774505615
0.258625	-0.00145840644836426
0.25875	-0.00141489505767822
0.258875	-0.00152492523193359
0.259	-0.00147461891174316
0.259125	-0.00147736072540283
0.25925	-0.00149035453796387
0.259375	-0.00144279003143311
0.2595	-0.00138819217681885
0.259625	-0.00140023231506348
0.25975	-0.00146698951721191
0.259875	-0.00146472454071045
0.26	-0.00134861469268799
0.260125	-0.00131785869598389
0.26025	-0.00138092041015625
0.260375	-0.00145065784454346
0.2605	-0.00144171714782715
0.260625	-0.00132548809051514
0.26075	-0.00128722190856934
0.260875	-0.0014030933380127
0.261	-0.00144743919372559
0.261125	-0.00135970115661621
0.26125	-0.00126302242279053
0.261375	-0.0013045072555542
0.2615	-0.00137758255004883
0.261625	-0.00137948989868164
0.26175	-0.00132811069488525
0.261875	-0.00121736526489258
0.262	-0.0012974739074707
0.262125	-0.00138187408447266
0.26225	-0.00132131576538086
0.262375	-0.00123322010040283
0.2625	-0.00125420093536377
0.262625	-0.00133788585662842
0.26275	-0.00130414962768555
0.262875	-0.00121188163757324
0.263	-0.00117969512939453
0.263125	-0.00121223926544189
0.26325	-0.00129592418670654
0.263375	-0.00125002861022949
0.2635	-0.00119638442993164
0.263625	-0.00119662284851074
0.26375	-0.00128030776977539
0.263875	-0.00130605697631836
0.264	-0.00118052959442139
0.264125	-0.00117409229278564
0.26425	-0.00123310089111328
0.264375	-0.00125157833099365
0.2645	-0.00121176242828369
0.264625	-0.00116050243377686
0.26475	-0.00119709968566895
0.264875	-0.00115644931793213
0.265	-0.00121378898620605
0.265125	-0.0011829137802124
0.26525	-0.00119698047637939
0.265375	-0.00114142894744873
0.2655	-0.00113034248352051
0.265625	-0.00118350982666016
0.26575	-0.00118041038513184
0.265875	-0.00117194652557373
0.266	-0.00107622146606445
0.266125	-0.00111484527587891
0.26625	-0.001151442527771
0.266375	-0.00122690200805664
0.2665	-0.00113821029663086
0.266625	-0.000960230827331543
0.26675	-0.00108420848846436
0.266875	-0.00119531154632568
0.267	-0.0011439323425293
0.267125	-0.00106930732727051
0.26725	-0.000990152359008789
0.267375	-0.00106477737426758
0.2675	-0.00110161304473877
0.267625	-0.00106346607208252
0.26775	-0.0010216236114502
0.267875	-0.000954389572143555
0.268	-0.00101947784423828
0.268125	-0.00108814239501953
0.26825	-0.00107038021087646
0.268375	-0.00100064277648926
0.2685	-0.00101053714752197
0.268625	-0.00107276439666748
0.26875	-0.00103306770324707
0.268875	-0.0010223388671875
0.269	-0.000956535339355469
0.269125	-0.00100231170654297
0.26925	-0.000974893569946289
0.269375	-0.00102472305297852
0.2695	-0.000977993011474609
0.269625	-0.000996589660644531
0.26975	-0.000994443893432617
0.269875	-0.000926017761230469
0.27	-0.00100255012512207
0.270125	-0.0010383129119873
0.27025	-0.00103521347045898
0.270375	-0.000890493392944336
0.2705	-0.000924110412597656
0.270625	-0.000988960266113281
0.27075	-0.00102972984313965
0.270875	-0.000848054885864258
0.271	-0.000766515731811523
0.271125	-0.000829458236694336
0.27125	-0.000938773155212402
0.271375	-0.000951528549194336
0.2715	-0.000803112983703613
0.271625	-0.000849723815917969
0.27175	-0.000915050506591797
0.271875	-0.000963568687438965
0.272	-0.000879287719726562
0.272125	-0.000869870185852051
0.27225	-0.000858783721923828
0.272375	-0.000919938087463379
0.2725	-0.000934600830078125
0.272625	-0.000831484794616699
0.27275	-0.000780224800109863
0.272875	-0.000854372978210449
0.273	-0.000916004180908203
0.273125	-0.000844597816467285
0.27325	-0.000846028327941895
0.273375	-0.000819087028503418
0.2735	-0.000846385955810547
0.273625	-0.000863909721374512
0.27375	-0.00081634521484375
0.273875	-0.000783920288085938
0.274	-0.000826835632324219
0.274125	-0.000829935073852539
0.27425	-0.000795960426330566
0.274375	-0.000777006149291992
0.2745	-0.000785589218139648
0.274625	-0.000876903533935547
0.27475	-0.00081324577331543
0.274875	-0.000794172286987305
0.275	-0.000816583633422852
0.275125	-0.000796914100646973
0.27525	-0.000764131546020508
0.275375	-0.000748276710510254
0.2755	-0.000752568244934082
0.275625	-0.000783443450927734
0.27575	-0.000733137130737305
0.275875	-0.000713109970092773
0.276	-0.000828385353088379
0.276125	-0.000769853591918945
0.27625	-0.000722289085388184
0.276375	-0.000707745552062988
0.2765	-0.000681638717651367
0.276625	-0.000749349594116211
0.27675	-0.000724077224731445
0.276875	-0.000656604766845703
0.277	-0.000662922859191895
0.277125	-0.000706195831298828
0.27725	-0.000694751739501953
0.277375	-0.000699877738952637
0.2775	-0.000714898109436035
0.277625	-0.000693559646606445
0.27775	-0.000703930854797363
0.277875	-0.000719428062438965
0.278	-0.000672578811645508
0.278125	-0.000679731369018555
0.27825	-0.000696182250976562
0.278375	-0.000705718994140625
0.2785	-0.000635266304016113
0.278625	-0.00063633918762207
0.27875	-0.000635147094726562
0.278875	-0.000639438629150391
0.279	-0.000664591789245605
0.279125	-0.000680685043334961
0.27925	-0.00067293643951416
0.279375	-0.000638008117675781
0.2795	-0.000575423240661621
0.279625	-0.000636577606201172
0.27975	-0.000646471977233887
0.279875	-0.000579953193664551
0.28	-0.000605225563049316
0.280125	-0.000562906265258789
0.28025	-0.000578522682189941
0.280375	-0.000619888305664062
0.2805	-0.000591635704040527
0.280625	-0.000533819198608398
0.28075	-0.000536203384399414
0.280875	-0.000572443008422852
0.281	-0.000530004501342773
0.281125	-0.000489950180053711
0.28125	-0.000461339950561523
0.281375	-0.000455260276794434
0.2815	-0.000538468360900879
0.281625	-0.000583767890930176
0.28175	-0.000516057014465332
0.281875	-0.000568389892578125
0.282	-0.000616312026977539
0.282125	-0.000545501708984375
0.28225	-0.000549435615539551
0.282375	-0.000489354133605957
0.2825	-0.00050508975982666
0.282625	-0.000523090362548828
0.28275	-0.000522255897521973
0.282875	-0.000512123107910156
0.283	-0.000525712966918945
0.283125	-0.000452756881713867
0.28325	-0.000532865524291992
0.283375	-0.000600337982177734
0.2835	-0.000539422035217285
0.283625	-0.000537633895874023
0.28375	-0.000522971153259277
0.283875	-0.000553727149963379
0.284	-0.000568985939025879
0.284125	-0.000579953193664551
0.28425	-0.000535130500793457
0.284375	-0.000551223754882812
0.2845	-0.000558972358703613
0.284625	-0.000561714172363281
0.28475	-0.000526905059814453
0.284875	-0.000489115715026855
0.285	-0.000475883483886719
0.285125	-0.000523209571838379
0.28525	-0.000519514083862305
0.285375	-0.000503897666931152
0.2855	-0.000482678413391113
0.285625	-0.000445842742919922
0.28575	-0.000513553619384766
0.285875	-0.000519752502441406
0.286	-0.000483036041259766
0.286125	-0.00049126148223877
0.28625	-0.000526309013366699
0.286375	-0.000509142875671387
0.2865	-0.000490903854370117
0.286625	-0.000416278839111328
0.28675	-0.000418543815612793
0.286875	-0.000385522842407227
0.287	-0.000429511070251465
0.287125	-0.000413417816162109
0.28725	-0.000415205955505371
0.287375	-0.00039064884185791
0.2875	-0.000383377075195312
0.287625	-0.000351786613464355
0.28775	-0.000373721122741699
0.287875	-0.000388145446777344
0.288	-0.000304937362670898
0.288125	-0.000337123870849609
0.28825	-0.000331401824951172
0.288375	-0.000391483306884766
0.2885	-0.000353813171386719
0.288625	-0.000316977500915527
0.28875	-0.000293850898742676
0.288875	-0.000329256057739258
0.289	-0.000306487083435059
0.289125	-0.000279068946838379
0.28925	-0.000347375869750977
0.289375	-0.000335574150085449
0.2895	-0.000343799591064453
0.289625	-0.000338435173034668
0.28975	-0.000330567359924316
0.289875	-0.000303506851196289
0.29	-0.000347733497619629
0.290125	-0.000295519828796387
0.29025	-0.000308632850646973
0.290375	-0.000325560569763184
0.2905	-0.000298380851745605
0.290625	-0.000287771224975586
0.29075	-0.00029909610748291
0.290875	-0.000324368476867676
0.291	-0.000293254852294922
0.291125	-0.000280380249023438
0.29125	-0.000252366065979004
0.291375	-0.000334382057189941
0.2915	-0.000322103500366211
0.291625	-0.000289797782897949
0.29175	-0.000286579132080078
0.291875	-0.000258684158325195
0.292	-0.000257492065429688
0.292125	-0.000282764434814453
0.29225	-0.000255942344665527
0.292375	-0.000188827514648438
0.2925	-0.000230550765991211
0.292625	-0.000294685363769531
0.29275	-0.000321865081787109
0.292875	-0.00029909610748291
0.293	-0.000286459922790527
0.293125	-0.000263452529907227
0.29325	-0.00023496150970459
0.293375	-0.000247359275817871
0.2935	-0.000230193138122559
0.293625	-0.000169157981872559
0.29375	-0.000192046165466309
0.293875	-0.000219941139221191
0.294	-0.000217795372009277
0.294125	-0.000204205513000488
0.29425	-0.000228524208068848
0.294375	-0.000271320343017578
0.2945	-0.000182867050170898
0.294625	-0.000212907791137695
0.29475	-0.000200629234313965
0.294875	-0.000216960906982422
0.295	-0.000192999839782715
0.295125	-0.000146627426147461
0.29525	-0.00016331672668457
0.295375	-0.00018608570098877
0.2955	-0.000171780586242676
0.295625	-0.000137925148010254
0.29575	-0.000153899192810059
0.295875	-0.000125408172607422
0.296	-0.000152468681335449
0.296125	-0.000102758407592773
0.29625	-0.000120878219604492
0.296375	-0.00019073486328125
0.2965	-0.000152349472045898
0.296625	-0.000155329704284668
0.29675	-0.00014030933380127
0.296875	-0.000120162963867188
0.297	-0.000152945518493652
0.297125	-0.000149011611938477
0.29725	-0.00012969970703125
0.297375	-0.000101685523986816
0.2975	-0.000106453895568848
0.297625	-0.000132322311401367
0.29775	-0.000119566917419434
0.297875	-0.000107288360595703
0.298	-5.18560409545898e-05
0.298125	-0.000121355056762695
0.29825	-0.000111103057861328
0.298375	-0.000120759010314941
0.2985	-0.000125408172607422
0.298625	-0.000123381614685059
0.29875	-0.000105977058410645
0.298875	-0.000144720077514648
0.299	-0.000108480453491211
0.299125	-0.000101923942565918
0.29925	-6.17504119873047e-05
0.299375	-6.92605972290039e-05
0.2995	-6.11543655395508e-05
0.299625	-7.08103179931641e-05
0.29975	-6.24656677246094e-05
0.299875	-3.23057174682617e-05
0.3	-3.71932983398438e-05
0.300125	-3.24249267578125e-05
0.30025	-8.61883163452148e-05
0.300375	-5.69820404052734e-05
0.3005	-1.74045562744141e-05
0.300625	-5.4478645324707e-05
0.30075	-7.33137130737305e-05
0.300875	-7.15255737304688e-07
0.301	-1.4185905456543e-05
0.301125	-6.4849853515625e-05
0.30125	-5.0663948059082e-05
0.301375	1.2516975402832e-05
0.3015	-4.22000885009766e-05
0.301625	-6.04391098022461e-05
0.30175	-3.87430191040039e-05
0.301875	1.21593475341797e-05
0.302	3.45706939697266e-05
0.302125	-1.94311141967773e-05
0.30225	-1.20401382446289e-05
0.302375	1.43051147460938e-06
0.3025	2.49147415161133e-05
0.302625	3.89814376831055e-05
0.30275	-3.57627868652344e-07
0.302875	-2.93254852294922e-05
0.303	5.84125518798828e-05
0.303125	5.56707382202148e-05
0.30325	2.27689743041992e-05
0.303375	2.68220901489258e-05
0.3035	4.05311584472656e-05
0.303625	-6.91413879394531e-06
0.30375	3.00407409667969e-05
0.303875	7.31945037841797e-05
0.304	5.12599945068359e-05
0.304125	4.61339950561523e-05
0.30425	2.1815299987793e-05
0.304375	7.55786895751953e-05
0.3045	6.2108039855957e-05
0.304625	6.5922737121582e-05
0.30475	2.59876251220703e-05
0.304875	6.91413879394531e-05
0.305	6.04391098022461e-05
0.305125	1.87158584594727e-05
0.30525	7.68899917602539e-05
0.305375	5.43594360351562e-05
0.3055	8.27312469482422e-05
0.305625	9.29832458496094e-05
0.30575	0.000118613243103027
0.305875	9.59634780883789e-05
0.306	3.18288803100586e-05
0.306125	9.54866409301758e-05
0.30625	7.82012939453125e-05
0.306375	8.48770141601562e-05
0.3065	0.000100255012512207
0.306625	8.2850456237793e-05
0.30675	5.65052032470703e-05
0.306875	6.3776969909668e-05
0.307	3.68356704711914e-05
0.307125	8.89301300048828e-05
0.30725	0.000148653984069824
0.307375	0.000116229057312012
0.3075	8.73804092407227e-05
0.307625	8.90493392944336e-05
0.30775	0.000125408172607422
0.307875	0.000173330307006836
0.308	0.000112175941467285
0.308125	7.58171081542969e-05
0.30825	0.000152468681335449
0.308375	0.000127315521240234
0.3085	7.82012939453125e-05
0.308625	5.87701797485352e-05
0.30875	0.000127315521240234
0.308875	0.000168681144714355
0.309	0.000156164169311523
0.309125	0.000162363052368164
0.30925	0.000148534774780273
0.309375	0.000138282775878906
0.3095	0.00011134147644043
0.309625	0.00012660026550293
0.30975	0.000129461288452148
0.309875	0.000166535377502441
0.31	0.000188112258911133
0.310125	0.000147223472595215
0.31025	0.000127911567687988
0.310375	0.00016176700592041
0.3105	0.000191807746887207
0.310625	0.000159144401550293
0.31075	0.000158429145812988
0.310875	0.000166177749633789
0.311	0.000185132026672363
0.311125	0.000181317329406738
0.31125	0.000168204307556152
0.311375	0.00014960765838623
0.3115	0.000127077102661133
0.311625	0.000146746635437012
0.31175	0.000175952911376953
0.311875	0.000157833099365234
0.312	0.000197887420654297
0.312125	0.000217795372009277
0.31225	0.000170111656188965
0.312375	0.00017702579498291
0.3125	0.000212907791137695
0.312625	0.000194072723388672
0.31275	0.000193119049072266
0.312875	0.000159263610839844
0.313	0.000213384628295898
0.313125	0.000197172164916992
0.31325	0.000189781188964844
0.313375	0.000200390815734863
0.3135	0.000198960304260254
0.313625	0.000196099281311035
0.31375	0.000246405601501465
0.313875	0.000251293182373047
0.314	0.000198483467102051
0.314125	0.000275135040283203
0.31425	0.00020289421081543
0.314375	0.00019228458404541
0.3145	0.000178694725036621
0.314625	0.000218510627746582
0.31475	0.000223398208618164
0.314875	0.000212669372558594
0.315	0.000211715698242188
0.315125	0.000256776809692383
0.31525	0.000263690948486328
0.315375	0.000247359275817871
0.3155	0.000239729881286621
0.315625	0.000198960304260254
0.31575	0.000238656997680664
0.315875	0.000227808952331543
0.316	0.000224947929382324
0.316125	0.000258088111877441
0.31625	0.000258803367614746
0.316375	0.000287055969238281
0.3165	0.000265598297119141
0.316625	0.000237703323364258
0.31675	0.000277876853942871
0.316875	0.000301837921142578
0.317	0.000289678573608398
0.317125	0.000212669372558594
0.31725	0.000241279602050781
0.317375	0.000303030014038086
0.3175	0.000269174575805664
0.317625	0.000233173370361328
0.31775	0.000255584716796875
0.317875	0.000234484672546387
0.318	0.000252127647399902
0.318125	0.000272393226623535
0.31825	0.00026702880859375
0.318375	0.000294327735900879
0.3185	0.000323176383972168
0.318625	0.000314593315124512
0.31875	0.000282883644104004
0.318875	0.000303983688354492
0.319	0.000324606895446777
0.319125	0.000311851501464844
0.31925	0.000333666801452637
0.319375	0.000324010848999023
0.3195	0.0003204345703125
0.319625	0.00026392936706543
0.31975	0.00027155876159668
0.319875	0.000335335731506348
0.32	0.000327348709106445
0.320125	0.000301122665405273
0.32025	0.00029909610748291
0.320375	0.000356316566467285
0.3205	0.000330448150634766
0.320625	0.000301599502563477
0.32075	0.000295400619506836
0.320875	0.000326871871948242
0.321	0.000303983688354492
0.321125	0.00030207633972168
0.32125	0.000306010246276855
0.321375	0.000344276428222656
0.3215	0.000417709350585938
0.321625	0.000356793403625488
0.32175	0.000335216522216797
0.321875	0.000352144241333008
0.322	0.000361084938049316
0.322125	0.000379443168640137
0.32225	0.000370264053344727
0.322375	0.000333666801452637
0.3225	0.000339388847351074
0.322625	0.000332117080688477
0.32275	0.000341176986694336
0.322875	0.000388622283935547
0.323	0.000400900840759277
0.323125	0.000382065773010254
0.32325	0.000324130058288574
0.323375	0.000364422798156738
0.3235	0.000420331954956055
0.323625	0.000348687171936035
0.32375	0.000356674194335938
0.323875	0.000349521636962891
0.324	0.000381588935852051
0.324125	0.000397324562072754
0.32425	0.000417113304138184
0.324375	0.000401854515075684
0.3245	0.000355005264282227
0.324625	0.000369906425476074
0.32475	0.000342130661010742
0.324875	0.00039219856262207
0.325	0.000375032424926758
0.325125	0.000392556190490723
0.32525	0.000414133071899414
0.325375	0.000393986701965332
0.3255	0.000344753265380859
0.325625	0.000404596328735352
0.32575	0.000423431396484375
0.325875	0.00040280818939209
0.326	0.000412702560424805
0.326125	0.000419855117797852
0.32625	0.000448822975158691
0.326375	0.000383853912353516
0.3265	0.000393986701965332
0.326625	0.000416398048400879
0.32675	0.000400543212890625
0.326875	0.000417113304138184
0.327	0.00042259693145752
0.327125	0.000427842140197754
0.32725	0.000421285629272461
0.327375	0.000403523445129395
0.3275	0.000418901443481445
0.327625	0.000443577766418457
0.32775	0.000429749488830566
0.327875	0.000453591346740723
0.328	0.000424861907958984
0.328125	0.000409841537475586
0.32825	0.000459551811218262
0.328375	0.000457167625427246
0.3285	0.000434160232543945
0.328625	0.000438451766967773
0.32875	0.000447392463684082
0.328875	0.000414490699768066
0.329	0.000449180603027344
0.329125	0.00044560432434082
0.32925	0.000444531440734863
0.329375	0.00047767162322998
0.3295	0.000449538230895996
0.329625	0.000450849533081055
0.32975	0.000514745712280273
0.329875	0.000551581382751465
0.33	0.000569581985473633
0.330125	0.000474452972412109
0.33025	0.000425457954406738
0.330375	0.000445842742919922
0.3305	0.000464558601379395
0.330625	0.000504374504089355
0.33075	0.000468850135803223
0.330875	0.000466704368591309
0.331	0.000470161437988281
0.331125	0.000474691390991211
0.33125	0.00047767162322998
0.331375	0.000493288040161133
0.3315	0.000490427017211914
0.331625	0.00042724609375
0.33175	0.000473737716674805
0.331875	0.00049591064453125
0.332	0.000492453575134277
0.332125	0.000490307807922363
0.33225	0.000452041625976562
0.332375	0.000460147857666016
0.3325	0.000477313995361328
0.332625	0.000466823577880859
0.33275	0.000423312187194824
0.332875	0.000464200973510742
0.333	0.000461220741271973
0.333125	0.000483036041259766
0.33325	0.000478863716125488
0.333375	0.000501036643981934
0.3335	0.000431537628173828
0.333625	0.000501275062561035
0.33375	0.000524282455444336
0.333875	0.00049293041229248
0.334	0.000434041023254395
0.334125	0.000415921211242676
0.33425	0.000476956367492676
0.334375	0.00053107738494873
0.3345	0.000550150871276855
0.334625	0.000450968742370605
0.33475	0.000468134880065918
0.334875	0.000496506690979004
0.335	0.000553131103515625
0.335125	0.000473260879516602
0.33525	0.000502109527587891
0.335375	0.000484108924865723
0.3355	0.000566720962524414
0.335625	0.00057065486907959
0.33575	0.000548958778381348
0.335875	0.000558257102966309
0.336	0.000659346580505371
0.336125	0.000556230545043945
0.33625	0.000462055206298828
0.336375	0.000528573989868164
0.3365	0.000581502914428711
0.336625	0.000665664672851562
0.33675	0.000579953193664551
0.336875	0.00049436092376709
0.337	0.000451803207397461
0.337125	0.000602364540100098
0.33725	0.000540852546691895
0.337375	0.000583410263061523
0.3375	0.000485062599182129
0.337625	0.000579237937927246
0.33775	0.000473499298095703
0.337875	0.000542759895324707
0.338	0.000451922416687012
0.338125	0.000504851341247559
0.33825	0.000468015670776367
0.338375	0.000512242317199707
0.3385	0.000629782676696777
0.338625	0.000519037246704102
0.33875	0.000556588172912598
0.338875	0.000374197959899902
0.339	0.000640988349914551
0.339125	0.000624537467956543
0.33925	0.00065004825592041
0.339375	0.000270485877990723
0.3395	0.000527262687683105
0.339625	0.000600814819335938
0.33975	0.000792384147644043
0.339875	0.000561118125915527
0.34	0.000294208526611328
0.340125	0.000533938407897949
0.34025	0.000487208366394043
0.340375	0.000759601593017578
0.3405	0.000452518463134766
0.340625	0.000663042068481445
0.34075	0.000412225723266602
0.340875	0.00055396556854248
0.341	0.000451207160949707
0.341125	0.000681519508361816
0.34125	0.000744223594665527
0.341375	0.000392913818359375
0.3415	0.000340580940246582
0.341625	0.000432252883911133
0.34175	0.00109398365020752
0.341875	0.000521659851074219
0.342	0.000376701354980469
0.342125	7.51018524169922e-06
0.34225	0.00107944011688232
0.342375	0.00101256370544434
0.3425	0.000571966171264648
0.342625	-0.000268340110778809
0.34275	0.000692129135131836
0.342875	0.00220727920532227
0.343	0.00182664394378662
0.343125	0.000833630561828613
0.34325	-0.000519633293151855
0.343375	0.00179636478424072
0.3435	0.00221335887908936
0.343625	0.00205326080322266
0.34375	-0.000161051750183105
0.343875	0.000248312950134277
0.344	0.0014500617980957
0.344125	0.00178933143615723
0.34425	0.000991582870483398
0.344375	-0.00031733512878418
0.3445	0.000513553619384766
0.344625	0.000799655914306641
0.34475	0.0011972188949585
0.344875	9.41753387451172e-05
0.345	0.000352144241333008
0.345125	0.000516057014465332
0.34525	0.00106656551361084
0.345375	0.000619649887084961
0.3455	0.000374794006347656
0.345625	0.000501871109008789
0.34575	0.000618934631347656
0.345875	0.000831484794616699
0.346	0.000407814979553223
0.346125	0.000664234161376953
0.34625	0.000387191772460938
0.346375	0.000612497329711914
0.3465	0.000381827354431152
0.346625	0.000746488571166992
0.34675	0.000632882118225098
0.346875	0.000529050827026367
0.347	0.000418186187744141
0.347125	0.000426888465881348
0.34725	0.000858783721923828
0.347375	0.000625133514404297
0.3475	0.000638723373413086
0.347625	0.000322222709655762
0.34775	0.000644207000732422
0.347875	0.000595211982727051
0.348	0.000739455223083496
0.348125	0.000513315200805664
0.34825	0.00056910514831543
0.348375	0.000658750534057617
0.3485	0.000605106353759766
0.348625	0.00066065788269043
0.34875	0.000468254089355469
0.348875	0.000696659088134766
0.349	0.000560760498046875
0.349125	0.00065314769744873
0.34925	0.000539422035217285
0.349375	0.000678777694702148
0.3495	0.000638127326965332
0.349625	0.000609278678894043
0.34975	0.000588536262512207
0.349875	0.00061488151550293
0.35	0.000602483749389648
0.350125	0.00053107738494873
0.35025	0.000549435615539551
0.350375	0.000584006309509277
0.3505	0.000705599784851074
0.350625	0.000554323196411133
0.35075	0.000589251518249512
0.350875	0.000542402267456055
0.351	0.000623583793640137
0.351125	0.000650882720947266
0.35125	0.000602960586547852
0.351375	0.00059044361114502
0.3515	0.000604748725891113
0.351625	0.000633120536804199
0.35175	0.000649571418762207
0.351875	0.000641226768493652
0.352	0.000641703605651855
0.352125	0.00060582160949707
0.35225	0.000604152679443359
0.352375	0.00065159797668457
0.3525	0.000588893890380859
0.352625	0.000621557235717773
0.35275	0.000610589981079102
0.352875	0.000696539878845215
0.353	0.000635623931884766
0.353125	0.00054168701171875
0.35325	0.000569701194763184
0.353375	0.000581741333007812
0.3535	0.00062859058380127
0.353625	0.000618815422058105
0.35375	0.000579476356506348
0.353875	0.00062870979309082
0.354	0.000667691230773926
0.354125	0.000660419464111328
0.35425	0.000596046447753906
0.354375	0.000590324401855469
0.3545	0.000710368156433105
0.354625	0.0006866455078125
0.35475	0.00067436695098877
0.354875	0.000572085380554199
0.355	0.000622272491455078
0.355125	0.000675320625305176
0.35525	0.000707149505615234
0.355375	0.000591278076171875
0.3555	0.000633478164672852
0.355625	0.000682592391967773
0.35575	0.000685811042785645
0.355875	0.000656723976135254
0.356	0.000560641288757324
0.356125	0.000684976577758789
0.35625	0.000686287879943848
0.356375	0.000663161277770996
0.3565	0.000557184219360352
0.356625	0.000620007514953613
0.35675	0.000672698020935059
0.356875	0.00066685676574707
0.357	0.000585794448852539
0.357125	0.000579953193664551
0.35725	0.000684618949890137
0.357375	0.000688672065734863
0.3575	0.000630974769592285
0.357625	0.00052332878112793
0.35775	0.000554680824279785
0.357875	0.000661134719848633
0.358	0.000693440437316895
0.358125	0.000620841979980469
0.35825	0.000585436820983887
0.358375	0.000677943229675293
0.3585	0.00071406364440918
0.358625	0.000679492950439453
0.35875	0.000587344169616699
0.358875	0.000579833984375
0.359	0.000676631927490234
0.359125	0.000699758529663086
0.35925	0.000685572624206543
0.359375	0.000544548034667969
0.3595	0.000614166259765625
0.359625	0.000682711601257324
0.35975	0.000699162483215332
0.359875	0.000638365745544434
0.36	0.000578761100769043
0.360125	0.000688791275024414
0.36025	0.000705718994140625
0.360375	0.000684738159179688
0.3605	0.000533223152160645
0.360625	0.000662684440612793
0.36075	0.000693202018737793
0.360875	0.000681519508361816
0.361	0.000588417053222656
0.361125	0.000612854957580566
0.36125	0.000673890113830566
0.361375	0.000668048858642578
0.3615	0.000630021095275879
0.361625	0.000611186027526855
0.36175	0.000640630722045898
0.361875	0.000679850578308105
0.362	0.000701069831848145
0.362125	0.000583767890930176
0.36225	0.000634431838989258
0.362375	0.00061488151550293
0.3625	0.000696539878845215
0.362625	0.000624179840087891
0.36275	0.000573396682739258
0.362875	0.000623822212219238
0.363	0.000695109367370605
0.363125	0.00068819522857666
0.36325	0.000599861145019531
0.363375	0.000604510307312012
0.3635	0.000610828399658203
0.363625	0.000682830810546875
0.36375	0.000622391700744629
0.363875	0.000604987144470215
0.364	0.000611186027526855
0.364125	0.000676631927490234
0.36425	0.000644445419311523
0.364375	0.000545620918273926
0.3645	0.000633358955383301
0.364625	0.000704050064086914
0.36475	0.000674009323120117
0.364875	0.000663638114929199
0.365	0.000566601753234863
0.365125	0.000628948211669922
0.36525	0.000655174255371094
0.365375	0.000649213790893555
0.3655	0.000648140907287598
0.365625	0.000617623329162598
0.36575	0.000659465789794922
0.365875	0.000661492347717285
0.366	0.000674962997436523
0.366125	0.000657796859741211
0.36625	0.000654697418212891
0.366375	0.000644803047180176
0.3665	0.000701308250427246
0.366625	0.000655055046081543
0.36675	0.000713348388671875
0.366875	0.000694632530212402
0.367	0.000667929649353027
0.367125	0.000675201416015625
0.36725	0.000708460807800293
0.367375	0.000677824020385742
0.3675	0.000670552253723145
0.367625	0.000701665878295898
0.36775	0.000673294067382812
0.367875	0.000727415084838867
0.368	0.000644803047180176
0.368125	0.000676751136779785
0.36825	0.000661015510559082
0.368375	0.000709772109985352
0.3685	0.000692248344421387
0.368625	0.000627994537353516
0.36875	0.000685453414916992
0.368875	0.000707745552062988
0.369	0.00069427490234375
0.369125	0.00064539909362793
0.36925	0.000732541084289551
0.369375	0.000700712203979492
0.3695	0.00073087215423584
0.369625	0.000669598579406738
0.36975	0.00064384937286377
0.369875	0.000713586807250977
0.37	0.000734448432922363
0.370125	0.000664353370666504
0.37025	0.000673651695251465
0.370375	0.000735282897949219
0.3705	0.000816941261291504
0.370625	0.000801444053649902
0.37075	0.000742316246032715
0.370875	0.000806450843811035
0.371	0.000796198844909668
0.371125	0.000817537307739258
0.37125	0.000719904899597168
0.371375	0.000703096389770508
0.3715	0.000781059265136719
0.371625	0.000789642333984375
0.37175	0.000761747360229492
0.371875	0.000728964805603027
0.372	0.00079500675201416
0.372125	0.000809669494628906
0.37225	0.000749588012695312
0.372375	0.000681281089782715
0.3725	0.00073087215423584
0.372625	0.000809073448181152
0.37275	0.000796914100646973
0.372875	0.000717043876647949
0.373	0.00070643424987793
0.373125	0.000808119773864746
0.37325	0.000787615776062012
0.373375	0.000658273696899414
0.3735	0.000617504119873047
0.373625	0.000666141510009766
0.37375	0.000755667686462402
0.373875	0.000705361366271973
0.374	0.000664710998535156
0.374125	0.000685214996337891
0.37425	0.000744938850402832
0.374375	0.000725746154785156
0.3745	0.000627517700195312
0.374625	0.000667929649353027
0.37475	0.000735282897949219
0.374875	0.000716447830200195
0.375	0.000689029693603516
0.375125	0.000635027885437012
0.37525	0.000667095184326172
0.375375	0.000711441040039062
0.3755	0.000714778900146484
0.375625	0.00065302848815918
0.37575	0.000652432441711426
0.375875	0.000702977180480957
0.376	0.000691413879394531
0.376125	0.000701904296875
0.37625	0.000709652900695801
0.376375	0.000835180282592773
0.3765	0.00086367130279541
0.376625	0.000836610794067383
0.37675	0.000806450843811035
0.376875	0.000864028930664062
0.377	0.000891804695129395
0.377125	0.000894904136657715
0.37725	0.000846028327941895
0.377375	0.000754833221435547
0.3775	0.000791549682617188
0.377625	0.000797510147094727
0.37775	0.00079798698425293
0.377875	0.000711560249328613
0.378	0.000770211219787598
0.378125	0.000797748565673828
0.37825	0.000800609588623047
0.378375	0.000812411308288574
0.3785	0.000783085823059082
0.378625	0.000768423080444336
0.37875	0.000737667083740234
0.378875	0.00080573558807373
0.379	0.000818729400634766
0.379125	0.000754714012145996
0.37925	0.000798821449279785
0.379375	0.000807762145996094
0.3795	0.000813841819763184
0.379625	0.000773787498474121
0.37975	0.000753402709960938
0.379875	0.000795364379882812
0.38	0.00081181526184082
0.380125	0.000777125358581543
0.38025	0.000774264335632324
0.380375	0.000803351402282715
0.3805	0.000783443450927734
0.380625	0.000774145126342773
0.38075	0.000793814659118652
0.380875	0.000826478004455566
0.381	0.000807523727416992
0.381125	0.000783324241638184
0.38125	0.000725030899047852
0.381375	0.000720381736755371
0.3815	0.000794529914855957
0.381625	0.000728368759155273
0.38175	0.000750303268432617
0.381875	0.000723481178283691
0.382	0.000805974006652832
0.382125	0.000807404518127441
0.38225	0.000749468803405762
0.382375	0.000765085220336914
0.3825	0.000788569450378418
0.382625	0.000838994979858398
0.38275	0.000800728797912598
0.382875	0.000753521919250488
0.383	0.000757336616516113
0.383125	0.00086522102355957
0.38325	0.000792145729064941
0.383375	0.00075066089630127
0.3835	0.000801801681518555
0.383625	0.000834107398986816
0.38375	0.000818967819213867
0.383875	0.000794410705566406
0.384	0.000760316848754883
0.384125	0.000837445259094238
0.38425	0.00087738037109375
0.384375	0.00080418586730957
0.3845	0.000789999961853027
0.384625	0.000798463821411133
0.38475	0.000802040100097656
0.384875	0.000801682472229004
0.385	0.000775933265686035
0.385125	0.000750422477722168
0.38525	0.00077211856842041
0.385375	0.000794768333435059
0.3855	0.000799775123596191
0.385625	0.000697851181030273
0.38575	0.000730514526367188
0.385875	0.000726819038391113
0.386	0.000714302062988281
0.386125	0.000706672668457031
0.38625	0.000713706016540527
0.386375	0.000704407691955566
0.3865	0.000701189041137695
0.386625	0.000736594200134277
0.38675	0.000692248344421387
0.386875	0.000722646713256836
0.387	0.000721931457519531
0.387125	0.000748276710510254
0.38725	0.000720739364624023
0.387375	0.000750184059143066
0.3875	0.000768065452575684
0.387625	0.000735878944396973
0.38775	0.000770807266235352
0.387875	0.00075984001159668
0.388	0.000742077827453613
0.388125	0.000736832618713379
0.38825	0.000730276107788086
0.388375	0.000733733177185059
0.3885	0.000725269317626953
0.388625	0.000720739364624023
0.38875	0.000745177268981934
0.388875	0.000743389129638672
0.389	0.000770926475524902
0.389125	0.000783324241638184
0.38925	0.000800609588623047
0.389375	0.000773072242736816
0.3895	0.000752925872802734
0.389625	0.000761508941650391
0.38975	0.000774025917053223
0.389875	0.000758171081542969
0.39	0.000756144523620605
0.390125	0.000715136528015137
0.39025	0.000715732574462891
0.390375	0.000723600387573242
0.3905	0.000739574432373047
0.390625	0.000773072242736816
0.39075	0.000779032707214355
0.390875	0.000749111175537109
0.391	0.000782489776611328
0.391125	0.000777840614318848
0.39125	0.000769853591918945
0.391375	0.000798225402832031
0.3915	0.00081634521484375
0.391625	0.00078129768371582
0.39175	0.000775694847106934
0.391875	0.000759720802307129
0.392	0.000787615776062012
0.392125	0.000818729400634766
0.39225	0.000725626945495605
0.392375	0.000774502754211426
0.3925	0.0008087158203125
0.392625	0.000760316848754883
0.39275	0.000723958015441895
0.392875	0.000782966613769531
0.393	0.00080263614654541
0.393125	0.000804543495178223
0.39325	0.000782251358032227
0.393375	0.000754594802856445
0.3935	0.000787019729614258
0.393625	0.000783324241638184
0.39375	0.00075376033782959
0.393875	0.00072634220123291
0.394	0.000778436660766602
0.394125	0.000746726989746094
0.39425	0.000710964202880859
0.394375	0.000715494155883789
0.3945	0.000763773918151855
0.394625	0.000801801681518555
0.39475	0.00075078010559082
0.394875	0.000730991363525391
0.395	0.000757336616516113
0.395125	0.000813841819763184
0.39525	0.000733256340026855
0.395375	0.000696539878845215
0.3955	0.000731229782104492
0.395625	0.000736594200134277
0.39575	0.000771045684814453
0.395875	0.000697970390319824
0.396	0.000701308250427246
0.396125	0.000759005546569824
0.39625	0.000760197639465332
0.396375	0.000769376754760742
0.3965	0.000737786293029785
0.396625	0.000743985176086426
0.39675	0.000771999359130859
0.396875	0.000742316246032715
0.397	0.000679969787597656
0.397125	0.000715494155883789
0.39725	0.000736713409423828
0.397375	0.000720024108886719
0.3975	0.00072181224822998
0.397625	0.000707864761352539
0.39775	0.000726461410522461
0.397875	0.000743269920349121
0.398	0.000728368759155273
0.398125	0.000767827033996582
0.39825	0.000762224197387695
0.398375	0.000779509544372559
0.3985	0.000783920288085938
0.398625	0.000738978385925293
0.39875	0.00077366828918457
0.398875	0.000797867774963379
0.399	0.000782966613769531
0.399125	0.00080716609954834
0.39925	0.000799894332885742
0.399375	0.000809907913208008
0.3995	0.000803112983703613
0.399625	0.00077354907989502
0.39975	0.000718355178833008
0.399875	0.000783681869506836
0.4	0.000817418098449707
0.400125	0.000773310661315918
0.40025	0.000756621360778809
0.400375	0.000770092010498047
0.4005	0.000795602798461914
0.400625	0.000783801078796387
0.40075	0.00077056884765625
0.400875	0.000690937042236328
0.401	0.000805258750915527
0.401125	0.000752568244934082
0.40125	0.000736474990844727
0.401375	0.000732779502868652
0.4015	0.000732779502868652
0.401625	0.000785470008850098
0.40175	0.00077366828918457
0.401875	0.000751376152038574
0.402	0.000762224197387695
0.402125	0.000815510749816895
0.40225	0.000772476196289062
0.402375	0.000781059265136719
0.4025	0.000768184661865234
0.402625	0.000782132148742676
0.40275	0.000793933868408203
0.402875	0.000756144523620605
0.403	0.000797629356384277
0.403125	0.000789165496826172
0.40325	0.000812411308288574
0.403375	0.000755667686462402
0.4035	0.000751495361328125
0.403625	0.000828742980957031
0.40375	0.000804424285888672
0.403875	0.000798344612121582
0.404	0.000759601593017578
0.404125	0.000818967819213867
0.40425	0.000797033309936523
0.404375	0.000789284706115723
0.4045	0.0008087158203125
0.404625	0.000829100608825684
0.40475	0.000836491584777832
0.404875	0.000808358192443848
0.405	0.000799894332885742
0.405125	0.000802516937255859
0.40525	0.000792622566223145
0.405375	0.000800132751464844
0.4055	0.000769495964050293
0.405625	0.000740170478820801
0.40575	0.000727057456970215
0.405875	0.000739812850952148
0.406	0.000700592994689941
0.406125	0.000677347183227539
0.40625	0.00076138973236084
0.406375	0.000748872756958008
0.4065	0.000695705413818359
0.406625	0.000750064849853516
0.40675	0.000788450241088867
0.406875	0.000710248947143555
0.407	0.000725865364074707
0.407125	0.000700950622558594
0.40725	0.000677824020385742
0.407375	0.000733852386474609
0.4075	0.000716805458068848
0.407625	0.000692844390869141
0.40775	0.000740885734558105
0.407875	0.000737190246582031
0.408	0.000765323638916016
0.408125	0.000742912292480469
0.40825	0.000735282897949219
0.408375	0.000727295875549316
0.4085	0.000751256942749023
0.408625	0.000700116157531738
0.40875	0.000712752342224121
0.408875	0.000705242156982422
0.409	0.000725150108337402
0.409125	0.000713467597961426
0.40925	0.000699162483215332
0.409375	0.000736832618713379
0.4095	0.000719547271728516
0.409625	0.000729680061340332
0.40975	0.000686764717102051
0.409875	0.00068366527557373
0.41	0.000678539276123047
0.410125	0.000718951225280762
0.41025	0.000700831413269043
0.410375	0.000692129135131836
0.4105	0.00072169303894043
0.410625	0.000725269317626953
0.41075	0.000711679458618164
0.410875	0.000686287879943848
0.411	0.000685811042785645
0.411125	0.000646352767944336
0.41125	0.000667095184326172
0.411375	0.000674962997436523
0.4115	0.000688910484313965
0.411625	0.000721573829650879
0.41175	0.000707745552062988
0.411875	0.000690698623657227
0.412	0.000699520111083984
0.412125	0.000724077224731445
0.41225	0.000715732574462891
0.412375	0.000712037086486816
0.4125	0.000717878341674805
0.412625	0.000696301460266113
0.41275	0.000706195831298828
0.412875	0.000711202621459961
0.413	0.000696063041687012
0.413125	0.00066077709197998
0.41325	0.000640511512756348
0.413375	0.000652194023132324
0.4135	0.000628352165222168
0.413625	0.000640034675598145
0.41375	0.000702500343322754
0.413875	0.000702381134033203
0.414	0.000686883926391602
0.414125	0.000690698623657227
0.41425	0.000704169273376465
0.414375	0.000704288482666016
0.4145	0.000703573226928711
0.414625	0.000664472579956055
0.41475	0.000726699829101562
0.414875	0.000713229179382324
0.415	0.000606417655944824
0.415125	0.000623822212219238
0.41525	0.00066220760345459
0.415375	0.00070953369140625
0.4155	0.000687003135681152
0.415625	0.000709176063537598
0.41575	0.000697970390319824
0.415875	0.000723123550415039
0.416	0.000690221786499023
0.416125	0.000647187232971191
0.41625	0.000674605369567871
0.416375	0.000671505928039551
0.4165	0.000692009925842285
0.416625	0.000692129135131836
0.41675	0.00070035457611084
0.416875	0.000696063041687012
0.417	0.000695466995239258
0.417125	0.000680685043334961
0.41725	0.000682592391967773
0.417375	0.000698328018188477
0.4175	0.000696778297424316
0.417625	0.00070345401763916
0.41775	0.000730276107788086
0.417875	0.000713586807250977
0.418	0.000696063041687012
0.418125	0.000666260719299316
0.41825	0.000650167465209961
0.418375	0.000671744346618652
0.4185	0.00064539909362793
0.418625	0.000671625137329102
0.41875	0.000684738159179688
0.418875	0.000634670257568359
0.419	0.000677347183227539
0.419125	0.000661373138427734
0.41925	0.000613927841186523
0.419375	0.000637292861938477
0.4195	0.000708460807800293
0.419625	0.000709652900695801
0.41975	0.000657320022583008
0.419875	0.000680208206176758
0.42	0.000662922859191895
0.420125	0.00067138671875
0.42025	0.000624418258666992
0.420375	0.000658631324768066
0.4205	0.000641942024230957
0.420625	0.000668764114379883
0.42075	0.000697970390319824
0.420875	0.000640273094177246
0.421	0.000668644905090332
0.421125	0.000675678253173828
0.42125	0.000609993934631348
0.421375	0.000620484352111816
0.4215	0.000699877738952637
0.421625	0.000651359558105469
0.42175	0.000688552856445312
0.421875	0.000672459602355957
0.422	0.000657916069030762
0.422125	0.000693917274475098
0.42225	0.00068819522857666
0.422375	0.00065457820892334
0.4225	0.000627636909484863
0.422625	0.00064539909362793
0.42275	0.00065004825592041
0.422875	0.000635862350463867
0.423	0.000605583190917969
0.423125	0.000619411468505859
0.42325	0.000646233558654785
0.423375	0.00066685676574707
0.4235	0.000713825225830078
0.423625	0.000652670860290527
0.42375	0.000651121139526367
0.423875	0.00066530704498291
0.424	0.000610947608947754
0.424125	0.00068366527557373
0.42425	0.000659346580505371
0.424375	0.000654220581054688
0.4245	0.000646114349365234
0.424625	0.000650405883789062
0.42475	0.000629901885986328
0.424875	0.00065159797668457
0.425	0.00065159797668457
0.425125	0.000600337982177734
0.42525	0.000662565231323242
0.425375	0.000688910484313965
0.4255	0.000675320625305176
0.425625	0.000628232955932617
0.42575	0.000624775886535645
0.425875	0.000662088394165039
0.426	0.000655889511108398
0.426125	0.000644087791442871
0.42625	0.000651717185974121
0.426375	0.000633120536804199
0.4265	0.000645756721496582
0.426625	0.000625967979431152
0.42675	0.000649571418762207
0.426875	0.000627279281616211
0.427	0.000648140907287598
0.427125	0.000659704208374023
0.42725	0.000621914863586426
0.427375	0.000661015510559082
0.4275	0.000640988349914551
0.427625	0.0006256103515625
0.42775	0.000589370727539062
0.427875	0.000655651092529297
0.428	0.000699162483215332
0.428125	0.000644564628601074
0.42825	0.000623226165771484
0.428375	0.000627636909484863
0.4285	0.000639081001281738
0.428625	0.000648021697998047
0.42875	0.000605225563049316
0.428875	0.000565409660339355
0.429	0.000605583190917969
0.429125	0.000649809837341309
0.42925	0.000655651092529297
0.429375	0.000570416450500488
0.4295	0.00060880184173584
0.429625	0.000654458999633789
0.42975	0.000665664672851562
0.429875	0.00059199333190918
0.43	0.000571489334106445
0.430125	0.000639081001281738
0.43025	0.000699639320373535
0.430375	0.000648140907287598
0.4305	0.000565171241760254
0.430625	0.000640273094177246
0.43075	0.000698328018188477
0.430875	0.00068056583404541
0.431	0.000591516494750977
0.431125	0.000546932220458984
0.43125	0.00066673755645752
0.431375	0.000692009925842285
0.4315	0.000578999519348145
0.431625	0.000602602958679199
0.43175	0.000558376312255859
0.431875	0.000637412071228027
0.432	0.000664472579956055
0.432125	0.000612020492553711
0.43225	0.000622153282165527
0.432375	0.000622272491455078
0.4325	0.00067448616027832
0.432625	0.000643372535705566
0.43275	0.000679969787597656
0.432875	0.000550508499145508
0.433	0.000563859939575195
0.433125	0.000677824020385742
0.43325	0.000686883926391602
0.433375	0.000668644905090332
0.4335	0.000507950782775879
0.433625	0.00056755542755127
0.43375	0.000640273094177246
0.433875	0.000695347785949707
0.434	0.000604987144470215
0.434125	0.000504136085510254
0.43425	0.00053703784942627
0.434375	0.000698208808898926
0.4345	0.000707387924194336
0.434625	0.000504374504089355
0.43475	0.000595450401306152
0.434875	0.00071406364440918
0.435	0.000803351402282715
0.435125	0.000576019287109375
0.43525	0.000515460968017578
0.435375	0.000614047050476074
0.4355	0.000815033912658691
0.435625	0.000751972198486328
0.43575	0.000505685806274414
0.435875	0.00055229663848877
0.436	0.000732421875
0.436125	0.000821590423583984
0.43625	0.000572681427001953
0.436375	0.000501632690429688
0.4365	0.000674247741699219
0.436625	0.000871539115905762
0.43675	0.000651001930236816
0.436875	0.000505685806274414
0.437	0.000585079193115234
0.437125	0.000827908515930176
0.43725	0.000807523727416992
0.437375	0.00061488151550293
0.4375	0.000541210174560547
0.437625	0.000631928443908691
0.43775	0.000798940658569336
0.437875	0.000699520111083984
0.438	0.000625848770141602
0.438125	0.000549674034118652
0.43825	0.000707149505615234
0.438375	0.000728726387023926
0.4385	0.000710487365722656
0.438625	0.000639557838439941
0.43875	0.000659942626953125
0.438875	0.000672698020935059
0.439	0.000665187835693359
0.439125	0.000826001167297363
0.43925	0.000676989555358887
0.439375	0.00056922435760498
0.4395	0.000461697578430176
0.439625	0.000735878944396973
0.43975	0.00084233283996582
0.439875	0.000729560852050781
0.44	0.000435829162597656
0.440125	0.000480532646179199
0.44025	0.000831961631774902
0.440375	0.000897526741027832
0.4405	0.000649333000183105
0.440625	0.000341892242431641
0.44075	0.0005950927734375
0.440875	0.000737667083740234
0.441	0.000874757766723633
0.441125	0.000533342361450195
0.44125	0.000596523284912109
0.441375	0.000550270080566406
0.4415	0.000710368156433105
0.441625	0.000718474388122559
0.44175	0.000726103782653809
0.441875	0.000791788101196289
0.442	0.000468611717224121
0.442125	0.00055384635925293
0.44225	0.000621914863586426
0.442375	0.00113940238952637
0.4425	0.000544428825378418
0.442625	0.000361800193786621
0.44275	0.000154972076416016
0.442875	0.00108969211578369
0.443	0.00107109546661377
0.443125	0.000621795654296875
0.44325	-0.000236153602600098
0.443375	0.000711798667907715
0.4435	0.00241410732269287
0.443625	0.00213050842285156
0.44375	0.00105249881744385
0.443875	-0.000534534454345703
0.444	0.00177896022796631
0.444125	0.00236070156097412
0.44425	0.0022660493850708
0.444375	-3.79085540771484e-05
0.4445	0.000198602676391602
0.444625	0.00156867504119873
0.44475	0.00195980072021484
0.444875	0.00113284587860107
0.445	-0.000245809555053711
0.445125	0.000478029251098633
0.44525	0.000817656517028809
0.445375	0.00127136707305908
0.4455	0.000276446342468262
0.445625	0.000395059585571289
0.44575	0.000449180603027344
0.445875	0.000938296318054199
0.446	0.00069129467010498
0.446125	0.000519394874572754
0.44625	0.000536561012268066
0.446375	0.000545501708984375
0.4465	0.000884890556335449
0.446625	0.000835776329040527
0.44675	0.000977993011474609
0.446875	0.000787138938903809
0.447	0.000834226608276367
0.447125	0.000668883323669434
0.44725	0.000963330268859863
0.447375	0.00104737281799316
0.4475	0.000829696655273438
0.447625	0.000603199005126953
0.44775	0.000600457191467285
0.447875	0.000959873199462891
0.448	0.00107371807098389
0.448125	0.000862002372741699
0.44825	0.000591397285461426
0.448375	0.000650644302368164
0.4485	0.00104999542236328
0.448625	0.00123929977416992
0.44875	0.00108420848846436
0.448875	0.000919342041015625
0.449	0.00114524364471436
0.449125	0.00112414360046387
0.44925	0.00110185146331787
0.449375	0.000990748405456543
0.4495	0.00101983547210693
0.449625	0.000994324684143066
0.44975	0.00100469589233398
0.449875	0.00103068351745605
0.45	0.000973343849182129
0.450125	0.00104284286499023
0.45025	0.000988245010375977
0.450375	0.00111114978790283
0.4505	0.00100386142730713
0.450625	0.00122785568237305
0.45075	0.00120329856872559
0.450875	0.00126898288726807
0.451	0.00132608413696289
0.451125	0.00134420394897461
0.45125	0.00121104717254639
0.451375	0.00118756294250488
0.4515	0.0012582540512085
0.451625	0.00130784511566162
0.45175	0.00124621391296387
0.451875	0.00115728378295898
0.452	0.00124752521514893
0.452125	0.00128507614135742
0.45225	0.00123882293701172
0.452375	0.00113582611083984
0.4525	0.00111854076385498
0.452625	0.00138652324676514
0.45275	0.00160121917724609
0.452875	0.00142514705657959
0.453	0.00138652324676514
0.453125	0.00150072574615479
0.45325	0.00160157680511475
0.453375	0.00150322914123535
0.4535	0.00145792961120605
0.453625	0.00134992599487305
0.45375	0.00145697593688965
0.453875	0.00147032737731934
0.454	0.00153851509094238
0.454125	0.00145399570465088
0.45425	0.00144386291503906
0.454375	0.00143671035766602
0.4545	0.00140690803527832
0.454625	0.00144803524017334
0.45475	0.0016019344329834
0.454875	0.0017702579498291
0.455	0.00169277191162109
0.455125	0.00170791149139404
0.45525	0.00162112712860107
0.455375	0.00159239768981934
0.4555	0.00158858299255371
0.455625	0.00167834758758545
0.45575	0.0016334056854248
0.455875	0.00167298316955566
0.456	0.00170910358428955
0.456125	0.00171077251434326
0.45625	0.00170862674713135
0.456375	0.00158846378326416
0.4565	0.00161755084991455
0.456625	0.00151848793029785
0.45675	0.00173044204711914
0.456875	0.00187921524047852
0.457	0.00183868408203125
0.457125	0.00189244747161865
0.45725	0.00189721584320068
0.457375	0.00186812877655029
0.4575	0.001792311668396
0.457625	0.00170421600341797
0.45775	0.00177717208862305
0.457875	0.0018690824508667
0.458	0.00187063217163086
0.458125	0.00187325477600098
0.45825	0.00181484222412109
0.458375	0.00184059143066406
0.4585	0.00181913375854492
0.458625	0.00177371501922607
0.45875	0.00181829929351807
0.458875	0.00191378593444824
0.459	0.00194287300109863
0.459125	0.00194621086120605
0.45925	0.00195193290710449
0.459375	0.00191497802734375
0.4595	0.0018763542175293
0.459625	0.00185608863830566
0.45975	0.00183725357055664
0.459875	0.00192475318908691
0.46	0.00200068950653076
0.460125	0.00194287300109863
0.46025	0.00185585021972656
0.460375	0.00188565254211426
0.4605	0.00184082984924316
0.460625	0.00185012817382812
0.46075	0.00179803371429443
0.460875	0.00196492671966553
0.461	0.00213813781738281
0.461125	0.00218355655670166
0.46125	0.00211238861083984
0.461375	0.00203800201416016
0.4615	0.00197935104370117
0.461625	0.00196254253387451
0.46175	0.00205981731414795
0.461875	0.00197815895080566
0.462	0.00205576419830322
0.462125	0.00207483768463135
0.46225	0.00208163261413574
0.462375	0.00205981731414795
0.4625	0.00200295448303223
0.462625	0.00196301937103271
0.46275	0.00197756290435791
0.462875	0.00206542015075684
0.463	0.00235378742218018
0.463125	0.00234246253967285
0.46325	0.00231289863586426
0.463375	0.00229728221893311
0.4635	0.00219810009002686
0.463625	0.00222158432006836
0.46375	0.00220131874084473
0.463875	0.00221502780914307
0.464	0.00220930576324463
0.464125	0.00235128402709961
0.46425	0.002372145652771
0.464375	0.00233197212219238
0.4645	0.00220942497253418
0.464625	0.00221788883209229
0.46475	0.00221776962280273
0.464875	0.00219988822937012
0.465	0.00238132476806641
0.465125	0.00233960151672363
0.46525	0.00233876705169678
0.465375	0.00232577323913574
0.4655	0.00228118896484375
0.465625	0.00215029716491699
0.46575	0.00219225883483887
0.465875	0.00223064422607422
0.466	0.00220394134521484
0.466125	0.00227200984954834
0.46625	0.00234079360961914
0.466375	0.00228893756866455
0.4665	0.00219202041625977
0.466625	0.00219714641571045
0.46675	0.00219452381134033
0.466875	0.00213873386383057
0.467	0.00231301784515381
0.467125	0.00251948833465576
0.46725	0.00246334075927734
0.467375	0.00248575210571289
0.4675	0.00247478485107422
0.467625	0.00230741500854492
0.46775	0.00236034393310547
0.467875	0.00235724449157715
0.468	0.00243473052978516
0.468125	0.00244498252868652
0.46825	0.0024254322052002
0.468375	0.00244462490081787
0.4685	0.00239884853363037
0.468625	0.00234079360961914
0.46875	0.0022733211517334
0.468875	0.00223493576049805
0.469	0.00239086151123047
0.469125	0.00280261039733887
0.46925	0.00269055366516113
0.469375	0.00264251232147217
0.4695	0.00269591808319092
0.469625	0.00270211696624756
0.46975	0.00258493423461914
0.469875	0.00261044502258301
0.47	0.00264334678649902
0.470125	0.00268411636352539
0.47025	0.00272130966186523
0.470375	0.00269389152526855
0.4705	0.00261926651000977
0.470625	0.00255787372589111
0.47075	0.00262510776519775
0.470875	0.00257408618927002
0.471	0.0025031566619873
0.471125	0.00263428688049316
0.47125	0.00288820266723633
0.471375	0.00283360481262207
0.4715	0.00267350673675537
0.471625	0.00262045860290527
0.47175	0.00259506702423096
0.471875	0.00265979766845703
0.472	0.00263631343841553
0.472125	0.00259196758270264
0.47225	0.00263762474060059
0.472375	0.00274419784545898
0.4725	0.0026925802230835
0.472625	0.00258147716522217
0.47275	0.00257313251495361
0.472875	0.00253200531005859
0.473	0.00251257419586182
0.473125	0.00264286994934082
0.47325	0.00277101993560791
0.473375	0.00275135040283203
0.4735	0.00276529788970947
0.473625	0.00269412994384766
0.47375	0.00261604785919189
0.473875	0.00256931781768799
0.474	0.00268864631652832
0.474125	0.0027008056640625
0.47425	0.00264906883239746
0.474375	0.00275158882141113
0.4745	0.00273394584655762
0.474625	0.00263762474060059
0.47475	0.00256812572479248
0.474875	0.00256943702697754
0.475	0.00251293182373047
0.475125	0.0025559663772583
0.47525	0.00271689891815186
0.475375	0.00276505947113037
0.4755	0.00271391868591309
0.475625	0.00275313854217529
0.47575	0.00270426273345947
0.475875	0.00257372856140137
0.476	0.00260710716247559
0.476125	0.0026172399520874
0.47625	0.0026705265045166
0.476375	0.00267636775970459
0.4765	0.00271034240722656
0.476625	0.0026479959487915
0.47675	0.00258660316467285
0.476875	0.00253903865814209
0.477	0.00254380702972412
0.477125	0.00256311893463135
0.47725	0.00272691249847412
0.477375	0.00276362895965576
0.4775	0.00269699096679688
0.477625	0.00278210639953613
0.47775	0.00272583961486816
0.477875	0.00260543823242188
0.478	0.0025627613067627
0.478125	0.00261843204498291
0.47825	0.00265121459960938
0.478375	0.00265491008758545
0.4785	0.00266289710998535
0.478625	0.00269663333892822
0.47875	0.00262808799743652
0.478875	0.00259184837341309
0.479	0.00256788730621338
0.479125	0.00262022018432617
0.47925	0.0026932954788208
0.479375	0.00266838073730469
0.4795	0.00264596939086914
0.479625	0.00259244441986084
0.47975	0.00261735916137695
0.479875	0.00256764888763428
0.48	0.00239908695220947
0.480125	0.00239717960357666
0.48025	0.00249350070953369
0.480375	0.00256574153900146
0.4805	0.00252914428710938
0.480625	0.00249981880187988
0.48075	0.00251829624176025
0.480875	0.0025256872177124
0.481	0.00251650810241699
0.481125	0.00239694118499756
0.48125	0.00237226486206055
0.481375	0.00258886814117432
0.4815	0.0026470422744751
0.481625	0.00259172916412354
0.48175	0.00254130363464355
0.481875	0.00252854824066162
0.482	0.00260519981384277
0.482125	0.00251209735870361
0.48225	0.00249159336090088
0.482375	0.00254762172698975
0.4825	0.00260078907012939
0.482625	0.00256931781768799
0.48275	0.00251567363739014
0.482875	0.00246644020080566
0.483	0.00243139266967773
0.483125	0.00248146057128906
0.48325	0.00242602825164795
0.483375	0.00247561931610107
0.4835	0.00251531600952148
0.483625	0.00254368782043457
0.48375	0.00249588489532471
0.483875	0.00245893001556396
0.484	0.002433180809021
0.484125	0.00246083736419678
0.48425	0.00242018699645996
0.484375	0.00236332416534424
0.4845	0.00245833396911621
0.484625	0.00247418880462646
0.48475	0.00244951248168945
0.484875	0.00237202644348145
0.485	0.00233745574951172
0.485125	0.00235700607299805
0.48525	0.00241959095001221
0.485375	0.00235641002655029
0.4855	0.00244700908660889
0.485625	0.00246632099151611
0.48575	0.00251030921936035
0.485875	0.00255846977233887
0.486	0.00244605541229248
0.486125	0.00239801406860352
0.48625	0.00238096714019775
0.486375	0.00246000289916992
0.4865	0.00239658355712891
0.486625	0.0024261474609375
0.48675	0.00241649150848389
0.486875	0.00240242481231689
0.487	0.00240278244018555
0.487125	0.00241577625274658
0.48725	0.0023810863494873
0.487375	0.00233542919158936
0.4875	0.00236594676971436
0.487625	0.00239145755767822
0.48775	0.00245988368988037
0.487875	0.00237345695495605
0.488	0.0023033618927002
0.488125	0.00224649906158447
0.48825	0.00228631496429443
0.488375	0.00225985050201416
0.4885	0.00224959850311279
0.488625	0.00221800804138184
0.48875	0.00225174427032471
0.488875	0.0022425651550293
0.489	0.00222504138946533
0.489125	0.00220155715942383
0.48925	0.00219297409057617
0.489375	0.0021977424621582
0.4895	0.0022430419921875
0.489625	0.00222957134246826
0.48975	0.00218284130096436
0.489875	0.00215482711791992
0.49	0.00217115879058838
0.490125	0.00218641757965088
0.49025	0.0021357536315918
0.490375	0.00213503837585449
0.4905	0.00211250782012939
0.490625	0.00211417675018311
0.49075	0.00213098526000977
0.490875	0.00214099884033203
0.491	0.00213479995727539
0.491125	0.00215673446655273
0.49125	0.00210630893707275
0.491375	0.00207149982452393
0.4915	0.00211536884307861
0.491625	0.00219142436981201
0.49175	0.00214433670043945
0.491875	0.00207972526550293
0.492	0.00205254554748535
0.492125	0.00209164619445801
0.49225	0.00213563442230225
0.492375	0.00208675861358643
0.4925	0.00196731090545654
0.492625	0.00204110145568848
0.49275	0.00212013721466064
0.492875	0.00208759307861328
0.493	0.00208210945129395
0.493125	0.00201630592346191
0.49325	0.00205790996551514
0.493375	0.00207889080047607
0.4935	0.00207197666168213
0.493625	0.00194215774536133
0.49375	0.00184381008148193
0.493875	0.00192451477050781
0.494	0.0019223690032959
0.494125	0.00190615653991699
0.49425	0.00185322761535645
0.494375	0.0018686056137085
0.4945	0.0018916130065918
0.494625	0.00186693668365479
0.49475	0.00185954570770264
0.494875	0.00184142589569092
0.495	0.00181794166564941
0.495125	0.00177645683288574
0.49525	0.00179564952850342
0.495375	0.00182163715362549
0.4955	0.00181996822357178
0.495625	0.00183713436126709
0.49575	0.00180399417877197
0.495875	0.00178694725036621
0.496	0.00180578231811523
0.496125	0.0017848014831543
0.49625	0.0017554759979248
0.496375	0.00175845623016357
0.4965	0.00181210041046143
0.496625	0.00180017948150635
0.49675	0.00172841548919678
0.496875	0.00169074535369873
0.497	0.00174260139465332
0.497125	0.00180160999298096
0.49725	0.00170528888702393
0.497375	0.00170981884002686
0.4975	0.0017397403717041
0.497625	0.00177872180938721
0.49775	0.00169515609741211
0.497875	0.00155961513519287
0.498	0.0015944242477417
0.498125	0.00157380104064941
0.49825	0.00155377388000488
0.498375	0.00151443481445312
0.4985	0.0015103816986084
0.498625	0.00156474113464355
0.49875	0.00156450271606445
0.498875	0.00146615505218506
0.499	0.00143921375274658
0.499125	0.00151824951171875
0.49925	0.00157535076141357
0.499375	0.00149106979370117
0.4995	0.00146520137786865
0.499625	0.00147759914398193
0.49975	0.00152695178985596
0.499875	0.00152337551116943
0.5	0.00143897533416748
0.500125	0.00145113468170166
0.50025	0.00150609016418457
0.500375	0.00152122974395752
0.5005	0.00145196914672852
0.500625	0.00141918659210205
0.50075	0.00146579742431641
0.500875	0.00149738788604736
0.501	0.00146520137786865
0.501125	0.0013967752456665
0.50125	0.0014042854309082
0.501375	0.00144839286804199
0.5015	0.00143694877624512
0.501625	0.00140678882598877
0.50175	0.00140535831451416
0.501875	0.00134086608886719
0.502	0.00128185749053955
0.502125	0.00125586986541748
0.50225	0.00124597549438477
0.502375	0.00125670433044434
0.5025	0.00129783153533936
0.502625	0.00120222568511963
0.50275	0.0011599063873291
0.502875	0.00124049186706543
0.503	0.00126051902770996
0.503125	0.00124764442443848
0.50325	0.00119173526763916
0.503375	0.00122678279876709
0.5035	0.00127589702606201
0.503625	0.00120425224304199
0.50375	0.00121021270751953
0.503875	0.00122511386871338
0.504	0.00111234188079834
0.504125	0.00111246109008789
0.50425	0.00101864337921143
0.504375	0.00107955932617188
0.5045	0.00109684467315674
0.504625	0.00106406211853027
0.50475	0.00109505653381348
0.504875	0.00105750560760498
0.505	0.00109684467315674
0.505125	0.00101554393768311
0.50525	0.000984430313110352
0.505375	0.00101947784423828
0.5055	0.00101196765899658
0.505625	0.00107729434967041
0.50575	0.00105142593383789
0.505875	0.000983715057373047
0.506	0.000902771949768066
0.506125	0.000878810882568359
0.50625	0.000866532325744629
0.506375	0.000840067863464355
0.5065	0.000866413116455078
0.506625	0.000873565673828125
0.50675	0.000945806503295898
0.506875	0.000877618789672852
0.507	0.00082707405090332
0.507125	0.000835418701171875
0.50725	0.00090479850769043
0.507375	0.000882863998413086
0.5075	0.000860095024108887
0.507625	0.000874638557434082
0.50775	0.00092005729675293
0.507875	0.00093531608581543
0.508	0.000840306282043457
0.508125	0.000689029693603516
0.50825	0.000699639320373535
0.508375	0.000700473785400391
0.5085	0.000699639320373535
0.508625	0.000735282897949219
0.50875	0.000684857368469238
0.508875	0.000735759735107422
0.509	0.000709295272827148
0.509125	0.000668525695800781
0.50925	0.000667214393615723
0.509375	0.00071108341217041
0.5095	0.000699758529663086
0.509625	0.000749349594116211
0.50975	0.000761985778808594
0.509875	0.000759363174438477
0.51	0.000697493553161621
0.510125	0.000338435173034668
0.51025	0.000266075134277344
0.510375	0.00026702880859375
0.5105	0.000299215316772461
0.510625	0.000282764434814453
0.51075	0.000306487083435059
0.510875	0.000323653221130371
0.511	0.000377774238586426
0.511125	0.000339150428771973
0.51125	0.000281929969787598
0.511375	0.000247359275817871
0.5115	0.000226497650146484
0.511625	0.00026249885559082
0.51175	0.000351548194885254
0.511875	0.00030219554901123
0.512	0.00031435489654541
0.512125	0.000151753425598145
0.51225	5.88893890380859e-05
0.512375	7.20024108886719e-05
0.5125	-2.15768814086914e-05
0.512625	3.42130661010742e-05
0.51275	6.02006912231445e-05
0.512875	0.000110507011413574
0.513	7.12871551513672e-05
0.513125	6.54458999633789e-05
0.51325	-5.84125518798828e-06
0.513375	2.81333923339844e-05
0.5135	-2.24113464355469e-05
0.513625	7.02142715454102e-05
0.51375	7.05718994140625e-05
0.513875	0.000110864639282227
0.514	6.33001327514648e-05
0.514125	1.60932540893555e-05
0.51425	-0.000103473663330078
0.514375	-0.000174164772033691
0.5145	-0.000179648399353027
0.514625	-0.000174522399902344
0.51475	-8.64267349243164e-05
0.514875	-3.91006469726562e-05
0.515	-5.42402267456055e-05
0.515125	-0.000101923942565918
0.51525	-0.000135660171508789
0.515375	-0.000190258026123047
0.5155	-0.000139236450195312
0.515625	-0.000101685523986816
0.51575	-0.000120043754577637
0.515875	-7.45058059692383e-05
0.516	-3.4332275390625e-05
0.516125	-6.60419464111328e-05
0.51625	-0.000301837921142578
0.516375	-0.000418543815612793
0.5165	-0.000408053398132324
0.516625	-0.000398755073547363
0.51675	-0.000380992889404297
0.516875	-0.000328421592712402
0.517	-0.000267863273620605
0.517125	-0.000345706939697266
0.51725	-0.000351548194885254
0.517375	-0.000419139862060547
0.5175	-0.000405669212341309
0.517625	-0.000435113906860352
0.51775	-0.000400066375732422
0.517875	-0.000295639038085938
0.518	-0.000351071357727051
0.518125	-0.000262022018432617
0.51825	-0.000416278839111328
0.518375	-0.000632166862487793
0.5185	-0.000642180442810059
0.518625	-0.000665783882141113
0.51875	-0.00058901309967041
0.518875	-0.000532150268554688
0.519	-0.000537633895874023
0.519125	-0.000588059425354004
0.51925	-0.00059962272644043
0.519375	-0.000649333000183105
0.5195	-0.000711679458618164
0.519625	-0.000684618949890137
0.51975	-0.000641703605651855
0.519875	-0.000544309616088867
0.52	-0.000562548637390137
0.520125	-0.000551342964172363
0.52025	-0.000549077987670898
0.520375	-0.000778317451477051
0.5205	-0.000729084014892578
0.520625	-0.00076603889465332
0.52075	-0.000690937042236328
0.520875	-0.000709295272827148
0.521	-0.000672101974487305
0.521125	-0.000644445419311523
0.52125	-0.00067436695098877
0.521375	-0.000698566436767578
0.5215	-0.00076901912689209
0.521625	-0.000777244567871094
0.52175	-0.000719666481018066
0.521875	-0.000667691230773926
0.522	-0.00067746639251709
0.522125	-0.000651836395263672
0.52225	-0.000647544860839844
0.522375	-0.00084686279296875
0.5225	-0.00101828575134277
0.522625	-0.00102519989013672
0.52275	-0.00099027156829834
0.522875	-0.000894665718078613
0.523	-0.000916600227355957
0.523125	-0.000882148742675781
0.52325	-0.000935673713684082
0.523375	-0.000974655151367188
0.5235	-0.000948309898376465
0.523625	-0.000985860824584961
0.52375	-0.000975251197814941
0.523875	-0.000908136367797852
0.524	-0.000873327255249023
0.524125	-0.000901579856872559
0.52425	-0.000853061676025391
0.524375	-0.000954508781433105
0.5245	-0.0012204647064209
0.524625	-0.00124549865722656
0.52475	-0.00116908550262451
0.524875	-0.00119209289550781
0.525	-0.00112020969390869
0.525125	-0.00112271308898926
0.52525	-0.0011289119720459
0.525375	-0.00112724304199219
0.5255	-0.00124073028564453
0.525625	-0.00121665000915527
0.52575	-0.00118815898895264
0.525875	-0.00113499164581299
0.526	-0.0010753870010376
0.526125	-0.00104570388793945
0.52625	-0.00105702877044678
0.526375	-0.00107550621032715
0.5265	-0.00132274627685547
0.526625	-0.00143551826477051
0.52675	-0.00139534473419189
0.526875	-0.00137662887573242
0.527	-0.00133728981018066
0.527125	-0.00131106376647949
0.52725	-0.00129246711730957
0.527375	-0.00139153003692627
0.5275	-0.00135362148284912
0.527625	-0.00137090682983398
0.52775	-0.00139379501342773
0.527875	-0.00131034851074219
0.528	-0.00133657455444336
0.528125	-0.00127327442169189
0.52825	-0.00131869316101074
0.528375	-0.00126421451568604
0.5285	-0.00149321556091309
0.528625	-0.0016016960144043
0.52875	-0.00152277946472168
0.528875	-0.00162601470947266
0.529	-0.00157618522644043
0.529125	-0.00155031681060791
0.52925	-0.00149834156036377
0.529375	-0.0015639066696167
0.5295	-0.00157415866851807
0.529625	-0.00159215927124023
0.52975	-0.00161266326904297
0.529875	-0.00154650211334229
0.53	-0.00158357620239258
0.530125	-0.00155067443847656
0.53025	-0.00150024890899658
0.530375	-0.0014801025390625
0.5305	-0.00155913829803467
0.530625	-0.00182592868804932
0.53075	-0.0018303394317627
0.530875	-0.0018002986907959
0.531	-0.00174820423126221
0.531125	-0.00177502632141113
0.53125	-0.00174891948699951
0.531375	-0.00166714191436768
0.5315	-0.00166034698486328
0.531625	-0.00172030925750732
0.53175	-0.00174403190612793
0.531875	-0.00174641609191895
0.532	-0.0017164945602417
0.532125	-0.00168967247009277
0.53225	-0.00167620182037354
0.532375	-0.00165331363677979
0.5325	-0.00169217586517334
0.532625	-0.00174236297607422
0.53275	-0.00173068046569824
0.532875	-0.00169909000396729
0.533	-0.00173294544219971
0.533125	-0.00168216228485107
0.53325	-0.00164246559143066
0.533375	-0.00163698196411133
0.5335	-0.0016481876373291
0.533625	-0.00163841247558594
0.53375	-0.00167882442474365
0.533875	-0.00173079967498779
0.534	-0.00169122219085693
0.534125	-0.00167202949523926
0.53425	-0.00160062313079834
0.534375	-0.00159752368927002
0.5345	-0.00163698196411133
0.534625	-0.00163066387176514
0.53475	-0.00175416469573975
0.534875	-0.0017627477645874
0.535	-0.00170779228210449
0.535125	-0.00167632102966309
0.53525	-0.00175929069519043
0.535375	-0.00176727771759033
0.5355	-0.00175368785858154
0.535625	-0.00166440010070801
0.53575	-0.00166630744934082
0.535875	-0.00176322460174561
0.536	-0.0018162727355957
0.536125	-0.0017096996307373
0.53625	-0.00165712833404541
0.536375	-0.00166058540344238
0.5365	-0.00167620182037354
0.536625	-0.00169265270233154
0.53675	-0.00167381763458252
0.536875	-0.00164318084716797
0.537	-0.00164222717285156
0.537125	-0.00171458721160889
0.53725	-0.00172507762908936
0.537375	-0.0017014741897583
0.5375	-0.00156641006469727
0.537625	-0.00158154964447021
0.53775	-0.00162816047668457
0.537875	-0.0017160177230835
0.538	-0.00169575214385986
0.538125	-0.00163447856903076
0.53825	-0.00160861015319824
0.538375	-0.00164365768432617
0.5385	-0.00168895721435547
0.538625	-0.00154542922973633
0.53875	-0.00153923034667969
0.538875	-0.00157487392425537
0.539	-0.0017164945602417
0.539125	-0.00165033340454102
0.53925	-0.00157058238983154
0.539375	-0.00154733657836914
0.5395	-0.0015944242477417
0.539625	-0.0015939474105835
0.53975	-0.00149643421173096
0.539875	-0.00158846378326416
