0.000000000000000000e+00
1.250000000000000026e-04
2.500000000000000052e-04
3.750000000000000078e-04
5.000000000000000104e-04
6.250000000000000130e-04
7.500000000000000156e-04
8.750000000000000182e-04
1.000000000000000021e-03
1.125000000000000132e-03
1.250000000000000026e-03
1.374999999999999920e-03
1.500000000000000031e-03
1.625000000000000142e-03
1.750000000000000036e-03
1.874999999999999931e-03
2.000000000000000042e-03
2.125000000000000153e-03
2.250000000000000264e-03
2.374999999999999941e-03
2.500000000000000052e-03
2.625000000000000163e-03
2.749999999999999840e-03
2.874999999999999951e-03
3.000000000000000062e-03
3.125000000000000173e-03
3.250000000000000284e-03
3.374999999999999962e-03
3.500000000000000073e-03
3.625000000000000184e-03
3.749999999999999861e-03
3.874999999999999972e-03
4.000000000000000083e-03
4.125000000000000194e-03
4.250000000000000305e-03
4.375000000000000416e-03
4.500000000000000527e-03
4.624999999999999771e-03
4.749999999999999882e-03
4.874999999999999993e-03
5.000000000000000104e-03
5.125000000000000215e-03
5.250000000000000326e-03
5.375000000000000437e-03
5.499999999999999681e-03
5.624999999999999792e-03
5.749999999999999903e-03
5.875000000000000014e-03
6.000000000000000125e-03
6.125000000000000236e-03
6.250000000000000347e-03
6.375000000000000458e-03
6.500000000000000569e-03
6.624999999999999813e-03
6.749999999999999924e-03
6.875000000000000035e-03
7.000000000000000146e-03
7.125000000000000257e-03
7.250000000000000368e-03
7.375000000000000479e-03
7.499999999999999722e-03
7.624999999999999833e-03
7.749999999999999944e-03
7.875000000000000056e-03
8.000000000000000167e-03
8.125000000000000278e-03
8.250000000000000389e-03
8.375000000000000500e-03
8.500000000000000611e-03
8.625000000000000722e-03
8.750000000000000833e-03
8.875000000000000944e-03
9.000000000000001055e-03
9.124999999999999431e-03
9.249999999999999542e-03
9.374999999999999653e-03
9.499999999999999764e-03
9.624999999999999875e-03
9.749999999999999986e-03
9.875000000000000097e-03
1.000000000000000021e-02
1.012500000000000032e-02
1.025000000000000043e-02
1.037500000000000054e-02
1.050000000000000065e-02
1.062500000000000076e-02
1.075000000000000087e-02
1.087500000000000099e-02
1.099999999999999936e-02
1.112499999999999947e-02
1.124999999999999958e-02
1.137499999999999969e-02
1.149999999999999981e-02
1.162499999999999992e-02
1.175000000000000003e-02
1.187500000000000014e-02
1.200000000000000025e-02
1.212500000000000036e-02
1.225000000000000047e-02
1.237500000000000058e-02
1.250000000000000069e-02
1.262500000000000080e-02
1.275000000000000092e-02
1.287500000000000103e-02
1.300000000000000114e-02
1.312499999999999951e-02
1.324999999999999963e-02
1.337499999999999974e-02
1.349999999999999985e-02
1.362499999999999996e-02
1.375000000000000007e-02
1.387500000000000018e-02
1.400000000000000029e-02
1.412500000000000040e-02
1.425000000000000051e-02
1.437500000000000062e-02
1.450000000000000074e-02
1.462500000000000085e-02
1.475000000000000096e-02
1.487500000000000107e-02
1.499999999999999944e-02
1.512499999999999956e-02
1.524999999999999967e-02
1.537499999999999978e-02
1.549999999999999989e-02
1.562500000000000000e-02
1.575000000000000011e-02
1.587500000000000022e-02
1.600000000000000033e-02
1.612500000000000044e-02
1.625000000000000056e-02
1.637500000000000067e-02
1.650000000000000078e-02
1.662500000000000089e-02
1.675000000000000100e-02
1.687500000000000111e-02
1.700000000000000122e-02
1.712500000000000133e-02
1.725000000000000144e-02
1.737500000000000155e-02
1.750000000000000167e-02
1.762500000000000178e-02
1.775000000000000189e-02
1.787500000000000200e-02
1.800000000000000211e-02
1.812499999999999875e-02
1.824999999999999886e-02
1.837499999999999897e-02
1.849999999999999908e-02
1.862499999999999920e-02
1.874999999999999931e-02
1.887499999999999942e-02
1.899999999999999953e-02
1.912499999999999964e-02
1.924999999999999975e-02
1.937499999999999986e-02
1.949999999999999997e-02
1.962500000000000008e-02
1.975000000000000019e-02
1.987500000000000031e-02
2.000000000000000042e-02
2.012500000000000053e-02
2.025000000000000064e-02
2.037500000000000075e-02
2.050000000000000086e-02
2.062500000000000097e-02
2.075000000000000108e-02
2.087500000000000119e-02
2.100000000000000130e-02
2.112500000000000142e-02
2.125000000000000153e-02
2.137500000000000164e-02
2.150000000000000175e-02
2.162500000000000186e-02
2.175000000000000197e-02
2.187500000000000208e-02
2.199999999999999872e-02
2.212499999999999883e-02
2.224999999999999895e-02
2.237499999999999906e-02
2.249999999999999917e-02
2.262499999999999928e-02
2.274999999999999939e-02
2.287499999999999950e-02
2.299999999999999961e-02
2.312499999999999972e-02
2.324999999999999983e-02
2.337499999999999994e-02
2.350000000000000006e-02
2.362500000000000017e-02
2.375000000000000028e-02
2.387500000000000039e-02
2.400000000000000050e-02
2.412500000000000061e-02
2.425000000000000072e-02
2.437500000000000083e-02
2.450000000000000094e-02
2.462500000000000105e-02
2.475000000000000117e-02
2.487500000000000128e-02
2.500000000000000139e-02
2.512500000000000150e-02
2.525000000000000161e-02
2.537500000000000172e-02
2.550000000000000183e-02
2.562500000000000194e-02
2.575000000000000205e-02
2.587500000000000216e-02
2.600000000000000228e-02
2.612499999999999892e-02
2.624999999999999903e-02
2.637499999999999914e-02
2.649999999999999925e-02
2.662499999999999936e-02
2.674999999999999947e-02
2.687499999999999958e-02
2.699999999999999969e-02
2.712499999999999981e-02
2.724999999999999992e-02
2.737500000000000003e-02
2.750000000000000014e-02
2.762500000000000025e-02
2.775000000000000036e-02
2.787500000000000047e-02
2.800000000000000058e-02
2.812500000000000069e-02
2.825000000000000080e-02
2.837500000000000092e-02
2.850000000000000103e-02
2.862500000000000114e-02
2.875000000000000125e-02
2.887500000000000136e-02
2.900000000000000147e-02
2.912500000000000158e-02
2.925000000000000169e-02
2.937500000000000180e-02
2.950000000000000192e-02
2.962500000000000203e-02
2.975000000000000214e-02
2.987500000000000225e-02
2.999999999999999889e-02
3.012499999999999900e-02
3.024999999999999911e-02
3.037499999999999922e-02
3.049999999999999933e-02
3.062499999999999944e-02
3.074999999999999956e-02
3.087499999999999967e-02
3.099999999999999978e-02
3.112499999999999989e-02
3.125000000000000000e-02
3.137500000000000011e-02
3.150000000000000022e-02
3.162500000000000033e-02
3.175000000000000044e-02
3.187500000000000056e-02
3.200000000000000067e-02
3.212500000000000078e-02
3.225000000000000089e-02
3.237500000000000100e-02
3.250000000000000111e-02
3.262500000000000122e-02
3.275000000000000133e-02
3.287500000000000144e-02
3.300000000000000155e-02
3.312500000000000167e-02
3.325000000000000178e-02
3.337500000000000189e-02
3.350000000000000200e-02
3.362500000000000211e-02
3.375000000000000222e-02
3.387500000000000233e-02
3.400000000000000244e-02
3.412500000000000255e-02
3.425000000000000266e-02
3.437500000000000278e-02
3.450000000000000289e-02
3.462500000000000300e-02
3.475000000000000311e-02
3.487500000000000322e-02
3.500000000000000333e-02
3.512500000000000344e-02
3.525000000000000355e-02
3.537500000000000366e-02
3.550000000000000377e-02
3.562500000000000389e-02
3.575000000000000400e-02
3.587500000000000411e-02
3.600000000000000422e-02
3.612499999999999739e-02
3.624999999999999750e-02
3.637499999999999761e-02
3.649999999999999772e-02
3.662499999999999784e-02
3.674999999999999795e-02
3.687499999999999806e-02
3.699999999999999817e-02
3.712499999999999828e-02
3.724999999999999839e-02
3.737499999999999850e-02
3.749999999999999861e-02
3.762499999999999872e-02
3.774999999999999883e-02
3.787499999999999895e-02
3.799999999999999906e-02
3.812499999999999917e-02
3.824999999999999928e-02
3.837499999999999939e-02
3.849999999999999950e-02
3.862499999999999961e-02
3.874999999999999972e-02
3.887499999999999983e-02
3.899999999999999994e-02
3.912500000000000006e-02
3.925000000000000017e-02
3.937500000000000028e-02
3.950000000000000039e-02
3.962500000000000050e-02
3.975000000000000061e-02
3.987500000000000072e-02
4.000000000000000083e-02
4.012500000000000094e-02
4.025000000000000105e-02
4.037500000000000117e-02
4.050000000000000128e-02
4.062500000000000139e-02
4.075000000000000150e-02
4.087500000000000161e-02
4.100000000000000172e-02
4.112500000000000183e-02
4.125000000000000194e-02
4.137500000000000205e-02
4.150000000000000216e-02
4.162500000000000228e-02
4.175000000000000239e-02
4.187500000000000250e-02
4.200000000000000261e-02
4.212500000000000272e-02
4.225000000000000283e-02
4.237500000000000294e-02
4.250000000000000305e-02
4.262500000000000316e-02
4.275000000000000328e-02
4.287500000000000339e-02
4.300000000000000350e-02
4.312500000000000361e-02
4.325000000000000372e-02
4.337500000000000383e-02
4.350000000000000394e-02
4.362500000000000405e-02
4.375000000000000416e-02
4.387500000000000427e-02
4.399999999999999745e-02
4.412499999999999756e-02
4.424999999999999767e-02
4.437499999999999778e-02
4.449999999999999789e-02
4.462499999999999800e-02
4.474999999999999811e-02
4.487499999999999822e-02
4.499999999999999833e-02
4.512499999999999845e-02
4.524999999999999856e-02
4.537499999999999867e-02
4.549999999999999878e-02
4.562499999999999889e-02
4.574999999999999900e-02
4.587499999999999911e-02
4.599999999999999922e-02
4.612499999999999933e-02
4.624999999999999944e-02
4.637499999999999956e-02
4.649999999999999967e-02
4.662499999999999978e-02
4.674999999999999989e-02
4.687500000000000000e-02
4.700000000000000011e-02
4.712500000000000022e-02
4.725000000000000033e-02
4.737500000000000044e-02
4.750000000000000056e-02
4.762500000000000067e-02
4.775000000000000078e-02
4.787500000000000089e-02
4.800000000000000100e-02
4.812500000000000111e-02
4.825000000000000122e-02
4.837500000000000133e-02
4.850000000000000144e-02
4.862500000000000155e-02
4.875000000000000167e-02
4.887500000000000178e-02
4.900000000000000189e-02
4.912500000000000200e-02
4.925000000000000211e-02
4.937500000000000222e-02
4.950000000000000233e-02
4.962500000000000244e-02
4.975000000000000255e-02
4.987500000000000266e-02
5.000000000000000278e-02
5.012500000000000289e-02
5.025000000000000300e-02
5.037500000000000311e-02
5.050000000000000322e-02
5.062500000000000333e-02
5.075000000000000344e-02
5.087500000000000355e-02
5.100000000000000366e-02
5.112500000000000377e-02
5.125000000000000389e-02
5.137500000000000400e-02
5.150000000000000411e-02
5.162500000000000422e-02
5.175000000000000433e-02
5.187500000000000444e-02
5.200000000000000455e-02
5.212500000000000466e-02
5.225000000000000477e-02
5.237500000000000488e-02
5.250000000000000500e-02
5.262500000000000511e-02
5.275000000000000522e-02
5.287500000000000533e-02
5.300000000000000544e-02
5.312500000000000555e-02
5.325000000000000566e-02
5.337500000000000577e-02
5.350000000000000588e-02
5.362500000000000600e-02
5.375000000000000611e-02
5.387500000000000622e-02
5.400000000000000633e-02
5.412500000000000644e-02
5.425000000000000655e-02
5.437500000000000666e-02
5.450000000000000677e-02
5.462500000000000688e-02
5.475000000000000699e-02
5.487500000000000711e-02
5.500000000000000722e-02
5.512500000000000733e-02
5.525000000000000744e-02
5.537500000000000755e-02
5.550000000000000766e-02
5.562500000000000777e-02
5.575000000000000788e-02
5.587500000000000799e-02
5.600000000000000117e-02
5.612500000000000128e-02
5.625000000000000139e-02
5.637500000000000150e-02
5.650000000000000161e-02
5.662500000000000172e-02
5.675000000000000183e-02
5.687500000000000194e-02
5.700000000000000205e-02
5.712500000000000216e-02
5.725000000000000228e-02
5.737500000000000239e-02
5.750000000000000250e-02
5.762500000000000261e-02
5.775000000000000272e-02
5.787500000000000283e-02
5.800000000000000294e-02
5.812500000000000305e-02
5.825000000000000316e-02
5.837500000000000328e-02
5.850000000000000339e-02
5.862500000000000350e-02
5.875000000000000361e-02
5.887500000000000372e-02
5.900000000000000383e-02
5.912500000000000394e-02
5.925000000000000405e-02
5.937500000000000416e-02
5.950000000000000427e-02
5.962500000000000439e-02
5.975000000000000450e-02
5.987500000000000461e-02
6.000000000000000472e-02
6.012500000000000483e-02
6.025000000000000494e-02
6.037500000000000505e-02
6.050000000000000516e-02
6.062500000000000527e-02
6.075000000000000538e-02
6.087500000000000550e-02
6.100000000000000561e-02
6.112500000000000572e-02
6.125000000000000583e-02
6.137500000000000594e-02
6.150000000000000605e-02
6.162500000000000616e-02
6.175000000000000627e-02
6.187500000000000638e-02
6.200000000000000649e-02
6.212500000000000661e-02
6.225000000000000672e-02
6.237500000000000683e-02
6.250000000000000000e-02
6.262500000000001399e-02
6.275000000000000022e-02
6.287500000000001421e-02
6.300000000000000044e-02
6.312500000000001443e-02
6.325000000000000067e-02
6.337500000000001465e-02
6.350000000000000089e-02
6.362500000000001488e-02
6.375000000000000111e-02
6.387500000000000122e-02
6.400000000000000133e-02
6.412500000000000144e-02
6.425000000000000155e-02
6.437500000000000167e-02
6.450000000000000178e-02
6.462500000000000189e-02
6.475000000000000200e-02
6.487500000000000211e-02
6.500000000000000222e-02
6.512500000000000233e-02
6.525000000000000244e-02
6.537500000000000255e-02
6.550000000000000266e-02
6.562500000000000278e-02
6.575000000000000289e-02
6.587500000000000300e-02
6.600000000000000311e-02
6.612500000000000322e-02
6.625000000000000333e-02
6.637500000000000344e-02
6.650000000000000355e-02
6.662500000000000366e-02
6.675000000000000377e-02
6.687500000000000389e-02
6.700000000000000400e-02
6.712500000000000411e-02
6.725000000000000422e-02
6.737500000000000433e-02
6.750000000000000444e-02
6.762500000000000455e-02
6.775000000000000466e-02
6.787500000000000477e-02
6.800000000000000488e-02
6.812500000000000500e-02
6.825000000000000511e-02
6.837500000000000522e-02
6.850000000000000533e-02
6.862500000000000544e-02
6.875000000000000555e-02
6.887500000000000566e-02
6.900000000000000577e-02
6.912500000000000588e-02
6.925000000000000600e-02
6.937500000000000611e-02
6.950000000000000622e-02
6.962500000000000633e-02
6.975000000000000644e-02
6.987500000000000655e-02
7.000000000000000666e-02
7.012500000000000677e-02
7.025000000000000688e-02
7.037500000000000699e-02
7.050000000000000711e-02
7.062500000000000722e-02
7.075000000000000733e-02
7.087500000000000744e-02
7.100000000000000755e-02
7.112500000000000766e-02
7.125000000000000777e-02
7.137500000000000788e-02
7.150000000000000799e-02
7.162500000000000810e-02
7.175000000000000822e-02
7.187500000000000833e-02
7.200000000000000844e-02
7.212500000000000855e-02
7.225000000000000866e-02
7.237500000000000877e-02
7.250000000000000888e-02
7.262500000000000899e-02
7.275000000000000910e-02
7.287500000000000921e-02
7.300000000000000933e-02
7.312500000000000944e-02
7.325000000000000955e-02
7.337500000000000966e-02
7.350000000000000977e-02
7.362500000000000988e-02
7.375000000000000999e-02
7.387499999999999623e-02
7.400000000000001021e-02
7.412499999999999645e-02
7.425000000000001044e-02
7.437499999999999667e-02
7.450000000000001066e-02
7.462499999999999689e-02
7.475000000000001088e-02
7.487499999999999711e-02
7.500000000000001110e-02
7.512499999999999734e-02
7.525000000000001132e-02
7.537499999999999756e-02
7.550000000000001155e-02
7.562499999999999778e-02
7.575000000000001177e-02
7.587499999999999800e-02
7.600000000000001199e-02
7.612499999999999822e-02
7.625000000000001221e-02
7.637499999999999845e-02
7.650000000000001243e-02
7.662499999999999867e-02
7.675000000000001266e-02
7.687499999999999889e-02
7.700000000000001288e-02
7.712499999999999911e-02
7.725000000000001310e-02
7.737499999999999933e-02
7.750000000000001332e-02
7.762499999999999956e-02
7.775000000000001354e-02
7.787499999999999978e-02
7.799999999999999989e-02
7.812500000000000000e-02
7.825000000000000011e-02
7.837500000000000022e-02
7.850000000000000033e-02
7.862500000000000044e-02
7.875000000000000056e-02
7.887500000000000067e-02
7.900000000000000078e-02
7.912500000000000089e-02
7.925000000000000100e-02
7.937500000000000111e-02
7.950000000000000122e-02
7.962500000000000133e-02
7.975000000000000144e-02
7.987500000000000155e-02
8.000000000000000167e-02
8.012500000000000178e-02
8.025000000000000189e-02
8.037500000000000200e-02
8.050000000000000211e-02
8.062500000000000222e-02
8.075000000000000233e-02
8.087500000000000244e-02
8.100000000000000255e-02
8.112500000000000266e-02
8.125000000000000278e-02
8.137500000000000289e-02
8.150000000000000300e-02
8.162500000000000311e-02
8.175000000000000322e-02
8.187500000000000333e-02
8.200000000000000344e-02
8.212500000000000355e-02
8.225000000000000366e-02
8.237500000000000377e-02
8.250000000000000389e-02
8.262500000000000400e-02
8.275000000000000411e-02
8.287500000000000422e-02
8.300000000000000433e-02
8.312500000000000444e-02
8.325000000000000455e-02
8.337500000000000466e-02
8.350000000000000477e-02
8.362500000000000488e-02
8.375000000000000500e-02
8.387500000000000511e-02
8.400000000000000522e-02
8.412500000000000533e-02
8.425000000000000544e-02
8.437500000000000555e-02
8.450000000000000566e-02
8.462500000000000577e-02
8.475000000000000588e-02
8.487500000000000600e-02
8.500000000000000611e-02
8.512500000000000622e-02
8.525000000000000633e-02
8.537500000000000644e-02
8.550000000000000655e-02
8.562500000000000666e-02
8.575000000000000677e-02
8.587500000000000688e-02
8.600000000000000699e-02
8.612500000000000711e-02
8.625000000000000722e-02
8.637500000000000733e-02
8.650000000000000744e-02
8.662500000000000755e-02
8.675000000000000766e-02
8.687500000000000777e-02
8.700000000000000788e-02
8.712500000000000799e-02
8.725000000000000810e-02
8.737500000000000822e-02
8.750000000000000833e-02
8.762500000000000844e-02
8.775000000000000855e-02
8.787500000000000866e-02
8.800000000000000877e-02
8.812500000000000888e-02
8.825000000000000899e-02
8.837500000000000910e-02
8.850000000000000921e-02
8.862500000000000933e-02
8.875000000000000944e-02
8.887500000000000955e-02
8.900000000000000966e-02
8.912500000000000977e-02
8.925000000000000988e-02
8.937500000000000999e-02
8.950000000000001010e-02
8.962500000000001021e-02
8.975000000000001033e-02
8.987500000000001044e-02
9.000000000000001055e-02
9.012500000000001066e-02
9.025000000000001077e-02
9.037500000000001088e-02
9.050000000000001099e-02
9.062500000000001110e-02
9.075000000000001121e-02
9.087500000000001132e-02
9.099999999999999756e-02
9.112500000000001155e-02
9.124999999999999778e-02
9.137500000000001177e-02
9.149999999999999800e-02
9.162500000000001199e-02
9.174999999999999822e-02
9.187500000000001221e-02
9.199999999999999845e-02
9.212500000000001243e-02
9.224999999999999867e-02
9.237500000000001266e-02
9.249999999999999889e-02
9.262499999999999900e-02
9.274999999999999911e-02
9.287499999999999922e-02
9.299999999999999933e-02
9.312499999999999944e-02
9.324999999999999956e-02
9.337499999999999967e-02
9.349999999999999978e-02
9.362499999999999989e-02
9.375000000000000000e-02
9.387500000000000011e-02
9.400000000000000022e-02
9.412500000000000033e-02
9.425000000000000044e-02
9.437500000000000056e-02
9.450000000000000067e-02
9.462500000000000078e-02
9.475000000000000089e-02
9.487500000000000100e-02
9.500000000000000111e-02
9.512500000000000122e-02
9.525000000000000133e-02
9.537500000000000144e-02
9.550000000000000155e-02
9.562500000000000167e-02
9.575000000000000178e-02
9.587500000000000189e-02
9.600000000000000200e-02
9.612500000000000211e-02
9.625000000000000222e-02
9.637500000000000233e-02
9.650000000000000244e-02
9.662500000000000255e-02
9.675000000000000266e-02
9.687500000000000278e-02
9.700000000000000289e-02
9.712500000000000300e-02
9.725000000000000311e-02
9.737500000000000322e-02
9.750000000000000333e-02
9.762500000000000344e-02
9.775000000000000355e-02
9.787500000000000366e-02
9.800000000000000377e-02
9.812500000000000389e-02
9.825000000000000400e-02
9.837500000000000411e-02
9.850000000000000422e-02
9.862500000000000433e-02
9.875000000000000444e-02
9.887500000000000455e-02
9.900000000000000466e-02
9.912500000000000477e-02
9.925000000000000488e-02
9.937500000000000500e-02
9.950000000000000511e-02
9.962500000000000522e-02
9.975000000000000533e-02
9.987500000000000544e-02
1.000000000000000056e-01
1.001250000000000057e-01
1.002500000000000058e-01
1.003750000000000059e-01
1.005000000000000060e-01
1.006250000000000061e-01
1.007500000000000062e-01
1.008750000000000063e-01
1.010000000000000064e-01
1.011250000000000066e-01
1.012500000000000067e-01
1.013750000000000068e-01
1.015000000000000069e-01
1.016250000000000070e-01
1.017500000000000071e-01
1.018750000000000072e-01
1.020000000000000073e-01
1.021250000000000074e-01
1.022500000000000075e-01
1.023750000000000077e-01
1.025000000000000078e-01
1.026250000000000079e-01
1.027500000000000080e-01
1.028750000000000081e-01
1.030000000000000082e-01
1.031250000000000083e-01
1.032500000000000084e-01
1.033750000000000085e-01
1.035000000000000087e-01
1.036250000000000088e-01
1.037500000000000089e-01
1.038750000000000090e-01
1.040000000000000091e-01
1.041250000000000092e-01
1.042500000000000093e-01
1.043750000000000094e-01
1.045000000000000095e-01
1.046250000000000097e-01
1.047500000000000098e-01
1.048750000000000099e-01
1.050000000000000100e-01
1.051250000000000101e-01
1.052500000000000102e-01
1.053750000000000103e-01
1.055000000000000104e-01
1.056250000000000105e-01
1.057500000000000107e-01
1.058750000000000108e-01
1.060000000000000109e-01
1.061250000000000110e-01
1.062500000000000111e-01
1.063750000000000112e-01
1.065000000000000113e-01
1.066250000000000114e-01
1.067500000000000115e-01
1.068750000000000117e-01
1.070000000000000118e-01
1.071250000000000119e-01
1.072500000000000120e-01
1.073750000000000121e-01
1.075000000000000122e-01
1.076249999999999984e-01
1.077500000000000124e-01
1.078749999999999987e-01
1.080000000000000127e-01
1.081249999999999989e-01
1.082500000000000129e-01
1.083749999999999991e-01
1.085000000000000131e-01
1.086249999999999993e-01
1.087500000000000133e-01
1.088749999999999996e-01
1.090000000000000135e-01
1.091249999999999998e-01
1.092499999999999999e-01
1.093750000000000000e-01
1.095000000000000001e-01
1.096250000000000002e-01
1.097500000000000003e-01
1.098750000000000004e-01
1.100000000000000006e-01
1.101250000000000007e-01
1.102500000000000008e-01
1.103750000000000009e-01
1.105000000000000010e-01
1.106250000000000011e-01
1.107500000000000012e-01
1.108750000000000013e-01
1.110000000000000014e-01
1.111250000000000016e-01
1.112500000000000017e-01
1.113750000000000018e-01
1.115000000000000019e-01
1.116250000000000020e-01
1.117500000000000021e-01
1.118750000000000022e-01
1.120000000000000023e-01
1.121250000000000024e-01
1.122500000000000026e-01
1.123750000000000027e-01
1.125000000000000028e-01
1.126250000000000029e-01
1.127500000000000030e-01
1.128750000000000031e-01
1.130000000000000032e-01
1.131250000000000033e-01
1.132500000000000034e-01
1.133750000000000036e-01
1.135000000000000037e-01
1.136250000000000038e-01
1.137500000000000039e-01
1.138750000000000040e-01
1.140000000000000041e-01
1.141250000000000042e-01
1.142500000000000043e-01
1.143750000000000044e-01
1.145000000000000046e-01
1.146250000000000047e-01
1.147500000000000048e-01
1.148750000000000049e-01
1.150000000000000050e-01
1.151250000000000051e-01
1.152500000000000052e-01
1.153750000000000053e-01
1.155000000000000054e-01
1.156250000000000056e-01
1.157500000000000057e-01
1.158750000000000058e-01
1.160000000000000059e-01
1.161250000000000060e-01
1.162500000000000061e-01
1.163750000000000062e-01
1.165000000000000063e-01
1.166250000000000064e-01
1.167500000000000066e-01
1.168750000000000067e-01
1.170000000000000068e-01
1.171250000000000069e-01
1.172500000000000070e-01
1.173750000000000071e-01
1.175000000000000072e-01
1.176250000000000073e-01
1.177500000000000074e-01
1.178750000000000075e-01
1.180000000000000077e-01
1.181250000000000078e-01
1.182500000000000079e-01
1.183750000000000080e-01
1.185000000000000081e-01
1.186250000000000082e-01
1.187500000000000083e-01
1.188750000000000084e-01
1.190000000000000085e-01
1.191250000000000087e-01
1.192500000000000088e-01
1.193750000000000089e-01
1.195000000000000090e-01
1.196250000000000091e-01
1.197500000000000092e-01
1.198750000000000093e-01
1.200000000000000094e-01
1.201250000000000095e-01
1.202500000000000097e-01
1.203750000000000098e-01
1.205000000000000099e-01
1.206250000000000100e-01
1.207500000000000101e-01
1.208750000000000102e-01
1.210000000000000103e-01
1.211250000000000104e-01
1.212500000000000105e-01
1.213750000000000107e-01
1.215000000000000108e-01
1.216250000000000109e-01
1.217500000000000110e-01
1.218750000000000111e-01
1.219999999999999973e-01
1.221250000000000113e-01
1.222499999999999976e-01
1.223750000000000115e-01
1.224999999999999978e-01
1.226250000000000118e-01
1.227499999999999980e-01
1.228750000000000120e-01
1.229999999999999982e-01
1.231250000000000122e-01
1.232499999999999984e-01
1.233750000000000124e-01
1.234999999999999987e-01
1.236250000000000127e-01
1.237499999999999989e-01
1.238750000000000129e-01
1.239999999999999991e-01
1.241250000000000131e-01
1.242499999999999993e-01
1.243750000000000133e-01
1.244999999999999996e-01
1.246250000000000135e-01
1.247499999999999998e-01
1.248750000000000138e-01
1.250000000000000000e-01
1.251250000000000140e-01
1.252500000000000002e-01
1.253750000000000142e-01
1.255000000000000004e-01
1.256250000000000144e-01
1.257500000000000007e-01
1.258750000000000147e-01
1.260000000000000009e-01
1.261250000000000149e-01
1.262500000000000011e-01
1.263750000000000151e-01
1.265000000000000013e-01
1.266250000000000153e-01
1.267500000000000016e-01
1.268750000000000155e-01
1.270000000000000018e-01
1.271250000000000158e-01
1.272500000000000020e-01
1.273750000000000160e-01
1.275000000000000022e-01
1.276250000000000162e-01
1.277500000000000024e-01
1.278750000000000164e-01
1.280000000000000027e-01
1.281250000000000167e-01
1.282500000000000029e-01
1.283750000000000169e-01
1.285000000000000031e-01
1.286250000000000171e-01
1.287500000000000033e-01
1.288750000000000173e-01
1.290000000000000036e-01
1.291250000000000175e-01
1.292500000000000038e-01
1.293750000000000178e-01
1.295000000000000040e-01
1.296250000000000180e-01
1.297500000000000042e-01
1.298750000000000182e-01
1.300000000000000044e-01
1.301249999999999907e-01
1.302500000000000047e-01
1.303750000000000187e-01
1.305000000000000049e-01
1.306249999999999911e-01
1.307500000000000051e-01
1.308750000000000191e-01
1.310000000000000053e-01
1.311249999999999916e-01
1.312500000000000056e-01
1.313750000000000195e-01
1.315000000000000058e-01
1.316249999999999920e-01
1.317500000000000060e-01
1.318750000000000200e-01
1.320000000000000062e-01
1.321249999999999925e-01
1.322500000000000064e-01
1.323750000000000204e-01
1.325000000000000067e-01
1.326249999999999929e-01
1.327500000000000069e-01
1.328750000000000209e-01
1.330000000000000071e-01
1.331249999999999933e-01
1.332500000000000073e-01
1.333750000000000213e-01
1.335000000000000075e-01
1.336249999999999938e-01
1.337500000000000078e-01
1.338750000000000218e-01
1.340000000000000080e-01
1.341249999999999942e-01
1.342500000000000082e-01
1.343750000000000222e-01
1.345000000000000084e-01
1.346249999999999947e-01
1.347500000000000087e-01
1.348750000000000226e-01
1.350000000000000089e-01
1.351249999999999951e-01
1.352500000000000091e-01
1.353750000000000231e-01
1.355000000000000093e-01
1.356249999999999956e-01
1.357500000000000095e-01
1.358750000000000235e-01
1.360000000000000098e-01
1.361249999999999960e-01
1.362500000000000100e-01
1.363749999999999962e-01
1.365000000000000102e-01
1.366249999999999964e-01
1.367500000000000104e-01
1.368749999999999967e-01
1.370000000000000107e-01
1.371249999999999969e-01
1.372500000000000109e-01
1.373749999999999971e-01
1.375000000000000111e-01
1.376249999999999973e-01
1.377500000000000113e-01
1.378749999999999976e-01
1.380000000000000115e-01
1.381249999999999978e-01
1.382500000000000118e-01
1.383749999999999980e-01
1.385000000000000120e-01
1.386249999999999982e-01
1.387500000000000122e-01
1.388749999999999984e-01
1.390000000000000124e-01
1.391249999999999987e-01
1.392500000000000127e-01
1.393749999999999989e-01
1.395000000000000129e-01
1.396249999999999991e-01
1.397500000000000131e-01
1.398749999999999993e-01
1.400000000000000133e-01
1.401249999999999996e-01
1.402500000000000135e-01
1.403749999999999998e-01
1.405000000000000138e-01
1.406250000000000000e-01
1.407500000000000140e-01
1.408750000000000002e-01
1.410000000000000142e-01
1.411250000000000004e-01
1.412500000000000144e-01
1.413750000000000007e-01
1.415000000000000147e-01
1.416250000000000009e-01
1.417500000000000149e-01
1.418750000000000011e-01
1.420000000000000151e-01
1.421250000000000013e-01
1.422500000000000153e-01
1.423750000000000016e-01
1.425000000000000155e-01
1.426250000000000018e-01
1.427500000000000158e-01
1.428750000000000020e-01
1.430000000000000160e-01
1.431250000000000022e-01
1.432500000000000162e-01
1.433750000000000024e-01
1.435000000000000164e-01
1.436250000000000027e-01
1.437500000000000167e-01
1.438750000000000029e-01
1.440000000000000169e-01
1.441250000000000031e-01
1.442499999999999893e-01
1.443750000000000033e-01
1.445000000000000173e-01
1.446250000000000036e-01
1.447499999999999898e-01
1.448750000000000038e-01
1.450000000000000178e-01
1.451250000000000040e-01
1.452499999999999902e-01
1.453750000000000042e-01
1.455000000000000182e-01
1.456250000000000044e-01
1.457499999999999907e-01
1.458750000000000047e-01
1.460000000000000187e-01
1.461250000000000049e-01
1.462499999999999911e-01
1.463750000000000051e-01
1.465000000000000191e-01
1.466250000000000053e-01
1.467499999999999916e-01
1.468750000000000056e-01
1.470000000000000195e-01
1.471250000000000058e-01
1.472499999999999920e-01
1.473750000000000060e-01
1.475000000000000200e-01
1.476250000000000062e-01
1.477499999999999925e-01
1.478750000000000064e-01
1.480000000000000204e-01
1.481250000000000067e-01
1.482499999999999929e-01
1.483750000000000069e-01
1.485000000000000209e-01
1.486250000000000071e-01
1.487499999999999933e-01
1.488750000000000073e-01
1.490000000000000213e-01
1.491250000000000075e-01
1.492499999999999938e-01
1.493750000000000078e-01
1.495000000000000218e-01
1.496250000000000080e-01
1.497499999999999942e-01
1.498750000000000082e-01
1.500000000000000222e-01
1.501250000000000084e-01
1.502500000000000224e-01
1.503750000000000364e-01
1.505000000000000226e-01
1.506250000000000089e-01
1.507500000000000229e-01
1.508750000000000369e-01
1.510000000000000231e-01
1.511250000000000093e-01
1.512500000000000233e-01
1.513750000000000373e-01
1.515000000000000235e-01
1.516250000000000098e-01
1.517500000000000238e-01
1.518750000000000377e-01
1.520000000000000240e-01
1.521250000000000102e-01
1.522500000000000242e-01
1.523750000000000382e-01
1.525000000000000244e-01
1.526250000000000107e-01
1.527500000000000246e-01
1.528750000000000386e-01
1.530000000000000249e-01
1.531250000000000111e-01
1.532500000000000251e-01
1.533750000000000391e-01
1.535000000000000253e-01
1.536250000000000115e-01
1.537500000000000255e-01
1.538750000000000395e-01
1.540000000000000258e-01
1.541250000000000120e-01
1.542500000000000260e-01
1.543750000000000400e-01
1.545000000000000262e-01
1.546250000000000124e-01
1.547500000000000264e-01
1.548750000000000404e-01
1.550000000000000266e-01
1.551250000000000129e-01
1.552500000000000269e-01
1.553750000000000409e-01
1.555000000000000271e-01
1.556250000000000133e-01
1.557500000000000273e-01
1.558750000000000413e-01
1.560000000000000275e-01
1.561250000000000138e-01
1.562500000000000278e-01
1.563750000000000140e-01
1.565000000000000280e-01
1.566250000000000142e-01
1.567500000000000282e-01
1.568750000000000144e-01
1.570000000000000284e-01
1.571250000000000147e-01
1.572500000000000286e-01
1.573750000000000149e-01
1.575000000000000289e-01
1.576250000000000151e-01
1.577500000000000291e-01
1.578750000000000153e-01
1.580000000000000293e-01
1.581250000000000155e-01
1.582500000000000295e-01
1.583750000000000158e-01
1.585000000000000298e-01
1.586250000000000160e-01
1.587500000000000300e-01
1.588750000000000162e-01
1.590000000000000302e-01
1.591250000000000164e-01
1.592500000000000304e-01
1.593750000000000167e-01
1.595000000000000306e-01
1.596250000000000169e-01
1.597500000000000309e-01
1.598750000000000171e-01
1.600000000000000311e-01
1.601250000000000173e-01
1.602500000000000313e-01
1.603750000000000175e-01
1.605000000000000315e-01
1.606250000000000178e-01
1.607500000000000318e-01
1.608750000000000180e-01
1.610000000000000320e-01
1.611250000000000182e-01
1.612500000000000322e-01
1.613750000000000184e-01
1.615000000000000324e-01
1.616250000000000187e-01
1.617500000000000326e-01
1.618750000000000189e-01
1.620000000000000329e-01
1.621250000000000191e-01
1.622500000000000331e-01
1.623750000000000193e-01
1.625000000000000333e-01
1.626250000000000195e-01
1.627500000000000335e-01
1.628750000000000198e-01
1.630000000000000338e-01
1.631250000000000200e-01
1.632500000000000340e-01
1.633750000000000202e-01
1.635000000000000342e-01
1.636250000000000204e-01
1.637500000000000344e-01
1.638750000000000207e-01
1.640000000000000346e-01
1.641250000000000209e-01
1.642500000000000071e-01
1.643750000000000211e-01
1.645000000000000351e-01
1.646250000000000213e-01
1.647500000000000075e-01
1.648750000000000215e-01
1.650000000000000355e-01
1.651250000000000218e-01
1.652500000000000080e-01
1.653750000000000220e-01
1.655000000000000360e-01
1.656250000000000222e-01
1.657500000000000084e-01
1.658750000000000224e-01
1.660000000000000364e-01
1.661250000000000226e-01
1.662500000000000089e-01
1.663750000000000229e-01
1.665000000000000369e-01
1.666250000000000231e-01
1.667500000000000093e-01
1.668750000000000233e-01
1.670000000000000373e-01
1.671250000000000235e-01
1.672500000000000098e-01
1.673750000000000238e-01
1.675000000000000377e-01
1.676250000000000240e-01
1.677500000000000102e-01
1.678750000000000242e-01
1.680000000000000382e-01
1.681250000000000244e-01
1.682500000000000107e-01
1.683750000000000246e-01
1.685000000000000386e-01
1.686250000000000249e-01
1.687500000000000111e-01
1.688750000000000251e-01
1.690000000000000391e-01
1.691250000000000253e-01
1.692500000000000115e-01
1.693750000000000255e-01
1.695000000000000395e-01
1.696250000000000258e-01
1.697500000000000120e-01
1.698750000000000260e-01
1.700000000000000122e-01
1.701250000000000262e-01
1.702500000000000124e-01
1.703750000000000264e-01
1.705000000000000127e-01
1.706250000000000266e-01
1.707500000000000129e-01
1.708750000000000269e-01
1.710000000000000131e-01
1.711250000000000271e-01
1.712500000000000133e-01
1.713750000000000273e-01
1.715000000000000135e-01
1.716250000000000275e-01
1.717500000000000138e-01
1.718750000000000278e-01
1.720000000000000140e-01
1.721250000000000280e-01
1.722500000000000142e-01
1.723750000000000282e-01
1.725000000000000144e-01
1.726250000000000284e-01
1.727500000000000147e-01
1.728750000000000286e-01
1.730000000000000149e-01
1.731250000000000289e-01
1.732500000000000151e-01
1.733750000000000291e-01
1.735000000000000153e-01
1.736250000000000293e-01
1.737500000000000155e-01
1.738750000000000295e-01
1.740000000000000158e-01
1.741250000000000298e-01
1.742500000000000160e-01
1.743750000000000300e-01
1.745000000000000162e-01
1.746250000000000302e-01
1.747500000000000164e-01
1.748750000000000304e-01
1.750000000000000167e-01
1.751250000000000306e-01
1.752500000000000169e-01
1.753750000000000309e-01
1.755000000000000171e-01
1.756250000000000311e-01
1.757500000000000173e-01
1.758750000000000313e-01
1.760000000000000175e-01
1.761250000000000315e-01
1.762500000000000178e-01
1.763750000000000318e-01
1.765000000000000180e-01
1.766250000000000320e-01
1.767500000000000182e-01
1.768750000000000322e-01
1.770000000000000184e-01
1.771250000000000324e-01
1.772500000000000187e-01
1.773750000000000326e-01
1.775000000000000189e-01
1.776250000000000329e-01
1.777500000000000191e-01
1.778750000000000331e-01
1.780000000000000193e-01
1.781250000000000333e-01
1.782500000000000195e-01
1.783750000000000335e-01
1.785000000000000198e-01
1.786250000000000338e-01
1.787500000000000200e-01
1.788750000000000340e-01
1.790000000000000202e-01
1.791250000000000342e-01
1.792500000000000204e-01
1.793750000000000344e-01
1.795000000000000207e-01
1.796250000000000346e-01
1.797500000000000209e-01
1.798750000000000349e-01
1.800000000000000211e-01
1.801250000000000351e-01
1.802500000000000213e-01
1.803750000000000353e-01
1.805000000000000215e-01
1.806250000000000355e-01
1.807500000000000218e-01
1.808750000000000357e-01
1.810000000000000220e-01
1.811250000000000360e-01
1.812500000000000222e-01
1.813750000000000362e-01
1.815000000000000224e-01
1.816250000000000364e-01
1.817500000000000226e-01
1.818750000000000089e-01
1.820000000000000229e-01
1.821250000000000369e-01
1.822500000000000231e-01
1.823750000000000093e-01
1.825000000000000233e-01
1.826250000000000373e-01
1.827500000000000235e-01
1.828750000000000098e-01
1.830000000000000238e-01
1.831250000000000377e-01
1.832500000000000240e-01
1.833750000000000102e-01
1.835000000000000242e-01
1.836250000000000382e-01
1.837500000000000244e-01
1.838750000000000107e-01
1.840000000000000246e-01
1.841250000000000386e-01
1.842500000000000249e-01
1.843750000000000111e-01
1.845000000000000251e-01
1.846250000000000391e-01
1.847500000000000253e-01
1.848750000000000115e-01
1.850000000000000255e-01
1.851250000000000118e-01
1.852500000000000258e-01
1.853750000000000120e-01
1.855000000000000260e-01
1.856250000000000122e-01
1.857500000000000262e-01
1.858750000000000124e-01
1.860000000000000264e-01
1.861250000000000127e-01
1.862500000000000266e-01
1.863750000000000129e-01
1.865000000000000269e-01
1.866250000000000131e-01
1.867500000000000271e-01
1.868750000000000133e-01
1.870000000000000273e-01
1.871250000000000135e-01
1.872500000000000275e-01
1.873750000000000138e-01
1.875000000000000278e-01
1.876250000000000140e-01
1.877500000000000280e-01
1.878750000000000142e-01
1.880000000000000282e-01
1.881250000000000144e-01
1.882500000000000284e-01
1.883750000000000147e-01
1.885000000000000286e-01
1.886250000000000149e-01
1.887500000000000289e-01
1.888750000000000151e-01
1.890000000000000291e-01
1.891250000000000153e-01
1.892500000000000293e-01
1.893750000000000155e-01
1.895000000000000295e-01
1.896250000000000158e-01
1.897500000000000298e-01
1.898750000000000160e-01
1.900000000000000300e-01
1.901250000000000162e-01
1.902500000000000302e-01
1.903750000000000164e-01
1.905000000000000304e-01
1.906250000000000167e-01
1.907500000000000306e-01
1.908750000000000169e-01
1.910000000000000309e-01
1.911250000000000171e-01
1.912500000000000311e-01
1.913750000000000173e-01
1.915000000000000313e-01
1.916250000000000175e-01
1.917500000000000315e-01
1.918750000000000178e-01
1.920000000000000318e-01
1.921250000000000180e-01
1.922500000000000320e-01
1.923750000000000182e-01
1.925000000000000322e-01
1.926250000000000184e-01
1.927500000000000324e-01
1.928750000000000187e-01
1.930000000000000326e-01
1.931250000000000189e-01
1.932500000000000329e-01
1.933750000000000191e-01
1.935000000000000331e-01
1.936250000000000193e-01
1.937500000000000333e-01
1.938750000000000195e-01
1.940000000000000335e-01
1.941250000000000198e-01
1.942500000000000338e-01
1.943750000000000200e-01
1.945000000000000340e-01
1.946250000000000202e-01
1.947500000000000342e-01
1.948750000000000204e-01
1.950000000000000344e-01
1.951250000000000207e-01
1.952500000000000346e-01
1.953750000000000209e-01
1.955000000000000349e-01
1.956250000000000211e-01
1.957500000000000351e-01
1.958750000000000213e-01
1.960000000000000353e-01
1.961250000000000215e-01
1.962500000000000355e-01
1.963750000000000218e-01
1.965000000000000357e-01
1.966250000000000220e-01
1.967500000000000360e-01
1.968750000000000222e-01
1.970000000000000362e-01
1.971250000000000224e-01
1.972500000000000364e-01
1.973750000000000226e-01
1.975000000000000366e-01
1.976250000000000229e-01
1.977500000000000369e-01
1.978750000000000231e-01
1.980000000000000371e-01
1.981250000000000233e-01
1.982500000000000373e-01
1.983750000000000235e-01
1.985000000000000375e-01
1.986250000000000238e-01
1.987500000000000377e-01
1.988750000000000240e-01
1.990000000000000380e-01
1.991250000000000242e-01
1.992500000000000382e-01
1.993750000000000244e-01
1.995000000000000384e-01
1.996250000000000246e-01
1.997500000000000386e-01
1.998750000000000249e-01
2.000000000000000111e-01
2.001249999999999973e-01
2.002500000000000113e-01
2.003749999999999976e-01
2.005000000000000115e-01
2.006249999999999978e-01
2.007500000000000118e-01
2.008749999999999980e-01
2.010000000000000120e-01
2.011249999999999982e-01
2.012500000000000122e-01
2.013749999999999984e-01
2.015000000000000124e-01
2.016249999999999987e-01
2.017500000000000127e-01
2.018749999999999989e-01
2.020000000000000129e-01
2.021249999999999991e-01
2.022500000000000131e-01
2.023749999999999993e-01
2.025000000000000133e-01
2.026249999999999996e-01
2.027500000000000135e-01
2.028749999999999998e-01
2.030000000000000138e-01
2.031250000000000000e-01
2.032500000000000140e-01
2.033750000000000002e-01
2.035000000000000142e-01
2.036250000000000004e-01
2.037500000000000144e-01
2.038750000000000007e-01
2.040000000000000147e-01
2.041250000000000009e-01
2.042500000000000149e-01
2.043750000000000011e-01
2.045000000000000151e-01
2.046250000000000013e-01
2.047500000000000153e-01
2.048750000000000016e-01
2.050000000000000155e-01
2.051250000000000018e-01
2.052500000000000158e-01
2.053750000000000020e-01
2.055000000000000160e-01
2.056250000000000022e-01
2.057500000000000162e-01
2.058750000000000024e-01
2.060000000000000164e-01
2.061250000000000027e-01
2.062500000000000167e-01
2.063750000000000029e-01
2.065000000000000169e-01
2.066250000000000031e-01
2.067500000000000171e-01
2.068750000000000033e-01
2.070000000000000173e-01
2.071250000000000036e-01
2.072500000000000175e-01
2.073750000000000038e-01
2.075000000000000178e-01
2.076250000000000040e-01
2.077500000000000180e-01
2.078750000000000042e-01
2.080000000000000182e-01
2.081250000000000044e-01
2.082500000000000184e-01
2.083750000000000047e-01
2.085000000000000187e-01
2.086250000000000049e-01
2.087500000000000189e-01
2.088750000000000051e-01
2.090000000000000191e-01
2.091250000000000053e-01
2.092500000000000193e-01
2.093750000000000056e-01
2.095000000000000195e-01
2.096250000000000058e-01
2.097500000000000198e-01
2.098750000000000060e-01
2.100000000000000200e-01
2.101250000000000062e-01
2.102500000000000202e-01
2.103750000000000064e-01
2.105000000000000204e-01
2.106250000000000067e-01
2.107500000000000207e-01
2.108750000000000069e-01
2.110000000000000209e-01
2.111250000000000071e-01
2.112500000000000211e-01
2.113750000000000073e-01
2.115000000000000213e-01
2.116250000000000075e-01
2.117500000000000215e-01
2.118750000000000078e-01
2.120000000000000218e-01
2.121250000000000080e-01
2.122500000000000220e-01
2.123750000000000082e-01
2.125000000000000222e-01
2.126250000000000084e-01
2.127500000000000224e-01
2.128750000000000087e-01
2.130000000000000226e-01
2.131250000000000089e-01
2.132500000000000229e-01
2.133750000000000091e-01
2.135000000000000231e-01
2.136250000000000093e-01
2.137500000000000233e-01
2.138750000000000095e-01
2.140000000000000235e-01
2.141250000000000098e-01
2.142500000000000238e-01
2.143750000000000100e-01
2.145000000000000240e-01
2.146250000000000102e-01
2.147500000000000242e-01
2.148750000000000104e-01
2.150000000000000244e-01
2.151250000000000107e-01
2.152499999999999969e-01
2.153750000000000109e-01
2.155000000000000249e-01
2.156250000000000111e-01
2.157499999999999973e-01
2.158750000000000113e-01
2.160000000000000253e-01
2.161250000000000115e-01
2.162499999999999978e-01
2.163750000000000118e-01
2.165000000000000258e-01
2.166250000000000120e-01
2.167499999999999982e-01
2.168750000000000122e-01
2.170000000000000262e-01
2.171250000000000124e-01
2.172499999999999987e-01
2.173750000000000127e-01
2.175000000000000266e-01
2.176250000000000129e-01
2.177499999999999991e-01
2.178750000000000131e-01
2.180000000000000271e-01
2.181250000000000133e-01
2.182499999999999996e-01
2.183750000000000135e-01
2.184999999999999998e-01
2.186250000000000138e-01
2.187500000000000000e-01
2.188750000000000140e-01
2.190000000000000002e-01
2.191250000000000142e-01
2.192500000000000004e-01
2.193750000000000144e-01
2.195000000000000007e-01
2.196250000000000147e-01
2.197500000000000009e-01
2.198750000000000149e-01
2.200000000000000011e-01
2.201250000000000151e-01
2.202500000000000013e-01
2.203750000000000153e-01
2.205000000000000016e-01
2.206250000000000155e-01
2.207500000000000018e-01
2.208750000000000158e-01
2.210000000000000020e-01
2.211250000000000160e-01
2.212500000000000022e-01
2.213750000000000162e-01
2.215000000000000024e-01
2.216250000000000164e-01
2.217500000000000027e-01
2.218750000000000167e-01
2.220000000000000029e-01
2.221250000000000169e-01
2.222500000000000031e-01
2.223750000000000171e-01
2.225000000000000033e-01
2.226250000000000173e-01
2.227500000000000036e-01
2.228750000000000175e-01
2.230000000000000038e-01
2.231250000000000178e-01
2.232500000000000040e-01
2.233750000000000180e-01
2.235000000000000042e-01
2.236250000000000182e-01
2.237500000000000044e-01
2.238750000000000184e-01
2.240000000000000047e-01
2.241250000000000187e-01
2.242500000000000049e-01
2.243750000000000189e-01
2.245000000000000051e-01
2.246250000000000191e-01
2.247500000000000053e-01
2.248750000000000193e-01
2.250000000000000056e-01
2.251250000000000195e-01
2.252500000000000058e-01
2.253750000000000198e-01
2.255000000000000060e-01
2.256250000000000200e-01
2.257500000000000062e-01
2.258750000000000202e-01
2.260000000000000064e-01
2.261250000000000204e-01
2.262500000000000067e-01
2.263750000000000207e-01
2.265000000000000069e-01
2.266250000000000209e-01
2.267500000000000071e-01
2.268750000000000211e-01
2.270000000000000073e-01
2.271250000000000213e-01
2.272500000000000075e-01
2.273750000000000215e-01
2.275000000000000078e-01
2.276250000000000218e-01
2.277500000000000080e-01
2.278750000000000220e-01
2.280000000000000082e-01
2.281250000000000222e-01
2.282500000000000084e-01
2.283750000000000224e-01
2.285000000000000087e-01
2.286250000000000226e-01
2.287500000000000089e-01
2.288750000000000229e-01
2.290000000000000091e-01
2.291250000000000231e-01
2.292500000000000093e-01
2.293750000000000233e-01
2.295000000000000095e-01
2.296250000000000235e-01
2.297500000000000098e-01
2.298750000000000238e-01
2.300000000000000100e-01
2.301250000000000240e-01
2.302500000000000102e-01
2.303749999999999964e-01
2.305000000000000104e-01
2.306250000000000244e-01
2.307500000000000107e-01
2.308749999999999969e-01
2.310000000000000109e-01
2.311250000000000249e-01
2.312500000000000111e-01
2.313749999999999973e-01
2.315000000000000113e-01
2.316250000000000253e-01
2.317500000000000115e-01
2.318749999999999978e-01
2.320000000000000118e-01
2.321250000000000258e-01
2.322500000000000120e-01
2.323749999999999982e-01
2.325000000000000122e-01
2.326250000000000262e-01
2.327500000000000124e-01
2.328749999999999987e-01
2.330000000000000127e-01
2.331250000000000266e-01
2.332500000000000129e-01
2.333749999999999991e-01
2.335000000000000131e-01
2.336250000000000271e-01
2.337500000000000133e-01
2.338749999999999996e-01
2.340000000000000135e-01
2.341250000000000275e-01
2.342500000000000138e-01
2.343750000000000000e-01
2.345000000000000140e-01
2.346250000000000280e-01
2.347500000000000142e-01
2.348750000000000004e-01
2.350000000000000144e-01
2.351250000000000284e-01
2.352500000000000147e-01
2.353750000000000009e-01
2.355000000000000149e-01
2.356250000000000289e-01
2.357500000000000151e-01
2.358750000000000013e-01
2.360000000000000153e-01
2.361250000000000016e-01
2.362500000000000155e-01
2.363750000000000018e-01
2.365000000000000158e-01
2.366250000000000020e-01
2.367500000000000160e-01
2.368750000000000022e-01
2.370000000000000162e-01
2.371250000000000024e-01
2.372500000000000164e-01
2.373750000000000027e-01
2.375000000000000167e-01
2.376250000000000029e-01
2.377500000000000169e-01
2.378750000000000031e-01
2.380000000000000171e-01
2.381250000000000033e-01
2.382500000000000173e-01
2.383750000000000036e-01
2.385000000000000175e-01
2.386250000000000038e-01
2.387500000000000178e-01
2.388750000000000040e-01
2.390000000000000180e-01
2.391250000000000042e-01
2.392500000000000182e-01
2.393750000000000044e-01
2.395000000000000184e-01
2.396250000000000047e-01
2.397500000000000187e-01
2.398750000000000049e-01
2.400000000000000189e-01
2.401250000000000051e-01
2.402500000000000191e-01
2.403750000000000053e-01
2.405000000000000193e-01
2.406250000000000056e-01
2.407500000000000195e-01
2.408750000000000058e-01
2.410000000000000198e-01
2.411250000000000060e-01
2.412500000000000200e-01
2.413750000000000062e-01
2.415000000000000202e-01
2.416250000000000064e-01
2.417500000000000204e-01
2.418750000000000067e-01
2.420000000000000207e-01
2.421250000000000069e-01
2.422500000000000209e-01
2.423750000000000071e-01
2.425000000000000211e-01
2.426250000000000073e-01
2.427500000000000213e-01
2.428750000000000075e-01
2.430000000000000215e-01
2.431250000000000078e-01
2.432500000000000218e-01
2.433750000000000080e-01
2.435000000000000220e-01
2.436250000000000082e-01
2.437500000000000222e-01
2.438750000000000084e-01
2.439999999999999947e-01
2.441250000000000087e-01
2.442500000000000226e-01
2.443750000000000089e-01
2.444999999999999951e-01
2.446250000000000091e-01
2.447500000000000231e-01
2.448750000000000093e-01
2.449999999999999956e-01
2.451250000000000095e-01
2.452500000000000235e-01
2.453750000000000098e-01
2.454999999999999960e-01
2.456250000000000100e-01
2.457500000000000240e-01
2.458750000000000102e-01
2.459999999999999964e-01
2.461250000000000104e-01
2.462500000000000244e-01
2.463750000000000107e-01
2.464999999999999969e-01
2.466250000000000109e-01
2.467500000000000249e-01
2.468750000000000111e-01
2.469999999999999973e-01
2.471250000000000113e-01
2.472500000000000253e-01
2.473750000000000115e-01
2.474999999999999978e-01
2.476250000000000118e-01
2.477500000000000258e-01
2.478750000000000120e-01
2.479999999999999982e-01
2.481250000000000122e-01
2.482500000000000262e-01
2.483750000000000124e-01
2.484999999999999987e-01
2.486250000000000127e-01
2.487500000000000266e-01
2.488750000000000129e-01
2.489999999999999991e-01
2.491250000000000131e-01
2.492500000000000271e-01
2.493750000000000133e-01
2.494999999999999996e-01
2.496250000000000135e-01
2.497500000000000275e-01
2.498750000000000138e-01
2.500000000000000000e-01
2.501249999999999862e-01
2.502499999999999725e-01
2.503750000000000142e-01
2.505000000000000004e-01
2.506249999999999867e-01
2.507500000000000284e-01
2.508750000000000147e-01
2.510000000000000009e-01
2.511249999999999871e-01
2.512499999999999734e-01
2.513750000000000151e-01
2.515000000000000013e-01
2.516249999999999876e-01
2.517500000000000293e-01
2.518750000000000155e-01
2.520000000000000018e-01
2.521249999999999880e-01
2.522499999999999742e-01
2.523750000000000160e-01
2.525000000000000022e-01
2.526249999999999885e-01
2.527500000000000302e-01
2.528750000000000164e-01
2.530000000000000027e-01
2.531249999999999889e-01
2.532499999999999751e-01
2.533750000000000169e-01
2.535000000000000031e-01
2.536249999999999893e-01
2.537500000000000311e-01
2.538750000000000173e-01
2.540000000000000036e-01
2.541249999999999898e-01
2.542499999999999760e-01
2.543750000000000178e-01
2.545000000000000040e-01
2.546249999999999902e-01
2.547500000000000320e-01
2.548750000000000182e-01
2.550000000000000044e-01
2.551249999999999907e-01
2.552499999999999769e-01
2.553750000000000187e-01
2.555000000000000049e-01
2.556249999999999911e-01
2.557500000000000329e-01
2.558750000000000191e-01
2.560000000000000053e-01
2.561249999999999916e-01
2.562499999999999778e-01
2.563750000000000195e-01
2.565000000000000058e-01
2.566249999999999920e-01
2.567499999999999782e-01
2.568750000000000200e-01
2.570000000000000062e-01
2.571249999999999925e-01
2.572499999999999787e-01
2.573750000000000204e-01
2.575000000000000067e-01
2.576249999999999929e-01
2.577499999999999791e-01
2.578750000000000209e-01
2.580000000000000071e-01
2.581249999999999933e-01
2.582499999999999796e-01
2.583750000000000213e-01
2.585000000000000075e-01
2.586249999999999938e-01
2.587499999999999800e-01
2.588750000000000218e-01
2.590000000000000080e-01
2.591249999999999942e-01
2.592499999999999805e-01
2.593750000000000222e-01
2.595000000000000084e-01
2.596249999999999947e-01
2.597499999999999809e-01
2.598750000000000226e-01
2.600000000000000089e-01
2.601249999999999951e-01
2.602499999999999813e-01
2.603750000000000231e-01
2.605000000000000093e-01
2.606249999999999956e-01
2.607499999999999818e-01
2.608750000000000235e-01
2.610000000000000098e-01
2.611249999999999960e-01
2.612499999999999822e-01
2.613750000000000240e-01
2.615000000000000102e-01
2.616249999999999964e-01
2.617499999999999827e-01
2.618750000000000244e-01
2.620000000000000107e-01
2.621249999999999969e-01
2.622499999999999831e-01
2.623750000000000249e-01
2.625000000000000111e-01
2.626249999999999973e-01
2.627499999999999836e-01
2.628750000000000253e-01
2.630000000000000115e-01
2.631249999999999978e-01
2.632499999999999840e-01
2.633750000000000258e-01
2.635000000000000120e-01
2.636249999999999982e-01
2.637499999999999845e-01
2.638749999999999707e-01
2.640000000000000124e-01
2.641249999999999987e-01
2.642499999999999849e-01
2.643750000000000266e-01
2.645000000000000129e-01
2.646249999999999991e-01
2.647499999999999853e-01
2.648749999999999716e-01
2.650000000000000133e-01
2.651249999999999996e-01
2.652499999999999858e-01
2.653750000000000275e-01
2.655000000000000138e-01
2.656250000000000000e-01
2.657499999999999862e-01
2.658749999999999725e-01
2.660000000000000142e-01
2.661250000000000004e-01
2.662499999999999867e-01
2.663750000000000284e-01
2.665000000000000147e-01
2.666250000000000009e-01
2.667499999999999871e-01
2.668749999999999734e-01
2.670000000000000151e-01
2.671250000000000013e-01
2.672499999999999876e-01
2.673750000000000293e-01
2.675000000000000155e-01
2.676250000000000018e-01
2.677499999999999880e-01
2.678749999999999742e-01
2.680000000000000160e-01
2.681250000000000022e-01
2.682499999999999885e-01
2.683750000000000302e-01
2.685000000000000164e-01
2.686250000000000027e-01
2.687499999999999889e-01
2.688749999999999751e-01
2.690000000000000169e-01
2.691250000000000031e-01
2.692499999999999893e-01
2.693750000000000311e-01
2.695000000000000173e-01
2.696250000000000036e-01
2.697499999999999898e-01
2.698749999999999760e-01
2.700000000000000178e-01
2.701250000000000040e-01
2.702499999999999902e-01
2.703749999999999765e-01
2.705000000000000182e-01
2.706250000000000044e-01
2.707499999999999907e-01
2.708749999999999769e-01
2.710000000000000187e-01
2.711250000000000049e-01
2.712499999999999911e-01
2.713749999999999774e-01
2.715000000000000191e-01
2.716250000000000053e-01
2.717499999999999916e-01
2.718749999999999778e-01
2.720000000000000195e-01
2.721250000000000058e-01
2.722499999999999920e-01
2.723749999999999782e-01
2.725000000000000200e-01
2.726250000000000062e-01
2.727499999999999925e-01
2.728749999999999787e-01
2.730000000000000204e-01
2.731250000000000067e-01
2.732499999999999929e-01
2.733749999999999791e-01
2.735000000000000209e-01
2.736250000000000071e-01
2.737499999999999933e-01
2.738749999999999796e-01
2.740000000000000213e-01
2.741250000000000075e-01
2.742499999999999938e-01
2.743749999999999800e-01
2.745000000000000218e-01
2.746250000000000080e-01
2.747499999999999942e-01
2.748749999999999805e-01
2.750000000000000222e-01
2.751250000000000084e-01
2.752499999999999947e-01
2.753749999999999809e-01
2.755000000000000226e-01
2.756250000000000089e-01
2.757499999999999951e-01
2.758749999999999813e-01
2.760000000000000231e-01
2.761250000000000093e-01
2.762499999999999956e-01
2.763749999999999818e-01
2.765000000000000235e-01
2.766250000000000098e-01
2.767499999999999960e-01
2.768749999999999822e-01
2.770000000000000240e-01
2.771250000000000102e-01
2.772499999999999964e-01
2.773749999999999827e-01
2.775000000000000244e-01
2.776250000000000107e-01
2.777499999999999969e-01
2.778749999999999831e-01
2.780000000000000249e-01
2.781250000000000111e-01
2.782499999999999973e-01
2.783749999999999836e-01
2.785000000000000253e-01
2.786250000000000115e-01
2.787499999999999978e-01
2.788749999999999840e-01
2.790000000000000258e-01
2.791250000000000120e-01
2.792499999999999982e-01
2.793749999999999845e-01
2.795000000000000262e-01
2.796250000000000124e-01
2.797499999999999987e-01
2.798749999999999849e-01
2.800000000000000266e-01
2.801250000000000129e-01
2.802499999999999991e-01
2.803749999999999853e-01
2.805000000000000271e-01
2.806250000000000133e-01
2.807499999999999996e-01
2.808749999999999858e-01
2.810000000000000275e-01
2.811250000000000138e-01
2.812500000000000000e-01
2.813749999999999862e-01
2.815000000000000280e-01
2.816250000000000142e-01
2.817500000000000004e-01
2.818749999999999867e-01
2.820000000000000284e-01
2.821250000000000147e-01
2.822500000000000009e-01
2.823749999999999871e-01
2.824999999999999734e-01
2.826250000000000151e-01
2.827500000000000013e-01
2.828749999999999876e-01
2.830000000000000293e-01
2.831250000000000155e-01
2.832500000000000018e-01
2.833749999999999880e-01
2.834999999999999742e-01
2.836250000000000160e-01
2.837500000000000022e-01
2.838749999999999885e-01
2.840000000000000302e-01
2.841250000000000164e-01
2.842500000000000027e-01
2.843749999999999889e-01
2.844999999999999751e-01
2.846250000000000169e-01
2.847500000000000031e-01
2.848749999999999893e-01
2.849999999999999756e-01
2.851250000000000173e-01
2.852500000000000036e-01
2.853749999999999898e-01
2.854999999999999760e-01
2.856250000000000178e-01
2.857500000000000040e-01
2.858749999999999902e-01
2.859999999999999765e-01
2.861250000000000182e-01
2.862500000000000044e-01
2.863749999999999907e-01
2.864999999999999769e-01
2.866250000000000187e-01
2.867500000000000049e-01
2.868749999999999911e-01
2.869999999999999774e-01
2.871250000000000191e-01
2.872500000000000053e-01
2.873749999999999916e-01
2.874999999999999778e-01
2.876250000000000195e-01
2.877500000000000058e-01
2.878749999999999920e-01
2.879999999999999782e-01
2.881250000000000200e-01
2.882500000000000062e-01
2.883749999999999925e-01
2.884999999999999787e-01
2.886250000000000204e-01
2.887500000000000067e-01
2.888749999999999929e-01
2.889999999999999791e-01
2.891250000000000209e-01
2.892500000000000071e-01
2.893749999999999933e-01
2.894999999999999796e-01
2.896250000000000213e-01
2.897500000000000075e-01
2.898749999999999938e-01
2.899999999999999800e-01
2.901250000000000218e-01
2.902500000000000080e-01
2.903749999999999942e-01
2.904999999999999805e-01
2.906250000000000222e-01
2.907500000000000084e-01
2.908749999999999947e-01
2.909999999999999809e-01
2.911250000000000226e-01
2.912500000000000089e-01
2.913749999999999951e-01
2.914999999999999813e-01
2.916250000000000231e-01
2.917500000000000093e-01
2.918749999999999956e-01
2.919999999999999818e-01
2.921250000000000235e-01
2.922500000000000098e-01
2.923749999999999960e-01
2.924999999999999822e-01
2.926250000000000240e-01
2.927500000000000102e-01
2.928749999999999964e-01
2.929999999999999827e-01
2.931250000000000244e-01
2.932500000000000107e-01
2.933749999999999969e-01
2.934999999999999831e-01
2.936250000000000249e-01
2.937500000000000111e-01
2.938749999999999973e-01
2.939999999999999836e-01
2.941250000000000253e-01
2.942500000000000115e-01
2.943749999999999978e-01
2.944999999999999840e-01
2.946250000000000258e-01
2.947500000000000120e-01
2.948749999999999982e-01
2.949999999999999845e-01
2.951250000000000262e-01
2.952500000000000124e-01
2.953749999999999987e-01
2.954999999999999849e-01
2.956250000000000266e-01
2.957500000000000129e-01
2.958749999999999991e-01
2.959999999999999853e-01
2.961250000000000271e-01
2.962500000000000133e-01
2.963749999999999996e-01
2.964999999999999858e-01
2.966250000000000275e-01
2.967500000000000138e-01
2.968750000000000000e-01
2.969999999999999862e-01
2.971250000000000280e-01
2.972500000000000142e-01
2.973750000000000004e-01
2.974999999999999867e-01
2.976250000000000284e-01
2.977500000000000147e-01
2.978750000000000009e-01
2.979999999999999871e-01
2.981250000000000289e-01
2.982500000000000151e-01
2.983750000000000013e-01
2.984999999999999876e-01
2.986250000000000293e-01
2.987500000000000155e-01
2.988750000000000018e-01
2.989999999999999880e-01
2.991250000000000298e-01
2.992500000000000160e-01
2.993750000000000022e-01
2.994999999999999885e-01
2.996250000000000302e-01
2.997500000000000164e-01
2.998750000000000027e-01
2.999999999999999889e-01
3.001249999999999751e-01
3.002499999999999614e-01
3.003750000000000031e-01
3.004999999999999893e-01
3.006249999999999756e-01
3.007499999999999618e-01
3.008750000000000036e-01
3.009999999999999898e-01
3.011249999999999760e-01
3.012499999999999623e-01
3.013750000000000040e-01
3.014999999999999902e-01
3.016249999999999765e-01
3.017499999999999627e-01
3.018750000000000044e-01
3.019999999999999907e-01
3.021249999999999769e-01
3.022499999999999631e-01
3.023750000000000049e-01
3.024999999999999911e-01
3.026249999999999774e-01
3.027499999999999636e-01
3.028750000000000053e-01
3.029999999999999916e-01
3.031249999999999778e-01
3.032499999999999640e-01
3.033750000000000058e-01
3.034999999999999920e-01
3.036249999999999782e-01
3.037499999999999645e-01
3.038750000000000062e-01
3.039999999999999925e-01
3.041249999999999787e-01
3.042499999999999649e-01
3.043750000000000067e-01
3.044999999999999929e-01
3.046249999999999791e-01
3.047499999999999654e-01
3.048750000000000071e-01
3.049999999999999933e-01
3.051249999999999796e-01
3.052499999999999658e-01
3.053750000000000075e-01
3.054999999999999938e-01
3.056249999999999800e-01
3.057499999999999662e-01
3.058750000000000080e-01
3.059999999999999942e-01
3.061249999999999805e-01
3.062499999999999667e-01
3.063750000000000084e-01
3.064999999999999947e-01
3.066249999999999809e-01
3.067499999999999671e-01
3.068750000000000089e-01
3.069999999999999951e-01
3.071249999999999813e-01
3.072499999999999676e-01
3.073750000000000093e-01
3.074999999999999956e-01
3.076249999999999818e-01
3.077499999999999680e-01
3.078750000000000098e-01
3.079999999999999960e-01
3.081249999999999822e-01
3.082499999999999685e-01
3.083750000000000102e-01
3.084999999999999964e-01
3.086249999999999827e-01
3.087499999999999689e-01
3.088750000000000107e-01
3.089999999999999969e-01
3.091249999999999831e-01
3.092499999999999694e-01
3.093750000000000111e-01
3.094999999999999973e-01
3.096249999999999836e-01
3.097499999999999698e-01
3.098750000000000115e-01
3.099999999999999978e-01
3.101249999999999840e-01
3.102499999999999702e-01
3.103750000000000120e-01
3.104999999999999982e-01
3.106249999999999845e-01
3.107499999999999707e-01
3.108750000000000124e-01
3.109999999999999987e-01
3.111249999999999849e-01
3.112499999999999711e-01
3.113750000000000129e-01
3.114999999999999991e-01
3.116249999999999853e-01
3.117499999999999716e-01
3.118750000000000133e-01
3.119999999999999996e-01
3.121249999999999858e-01
3.122499999999999720e-01
3.123750000000000138e-01
3.125000000000000000e-01
3.126249999999999862e-01
3.127499999999999725e-01
3.128750000000000142e-01
3.130000000000000004e-01
3.131249999999999867e-01
3.132499999999999729e-01
3.133750000000000147e-01
3.135000000000000009e-01
3.136249999999999871e-01
3.137499999999999734e-01
3.138750000000000151e-01
3.140000000000000013e-01
3.141249999999999876e-01
3.142499999999999738e-01
3.143750000000000155e-01
3.145000000000000018e-01
3.146249999999999880e-01
3.147499999999999742e-01
3.148750000000000160e-01
3.150000000000000022e-01
3.151249999999999885e-01
3.152499999999999747e-01
3.153749999999999609e-01
3.155000000000000027e-01
3.156249999999999889e-01
3.157499999999999751e-01
3.158750000000000169e-01
3.160000000000000031e-01
3.161249999999999893e-01
3.162499999999999756e-01
3.163749999999999618e-01
3.165000000000000036e-01
3.166249999999999898e-01
3.167499999999999760e-01
3.168750000000000178e-01
3.170000000000000040e-01
3.171249999999999902e-01
3.172499999999999765e-01
3.173749999999999627e-01
3.175000000000000044e-01
3.176249999999999907e-01
3.177499999999999769e-01
3.178750000000000187e-01
3.180000000000000049e-01
3.181249999999999911e-01
3.182499999999999774e-01
3.183749999999999636e-01
3.185000000000000053e-01
3.186249999999999916e-01
3.187499999999999778e-01
3.188749999999999640e-01
3.190000000000000058e-01
3.191249999999999920e-01
3.192499999999999782e-01
3.193749999999999645e-01
3.195000000000000062e-01
3.196249999999999925e-01
3.197499999999999787e-01
3.198749999999999649e-01
3.200000000000000067e-01
3.201249999999999929e-01
3.202499999999999791e-01
3.203749999999999654e-01
3.205000000000000071e-01
3.206249999999999933e-01
3.207499999999999796e-01
3.208749999999999658e-01
3.210000000000000075e-01
3.211249999999999938e-01
3.212499999999999800e-01
3.213749999999999662e-01
3.215000000000000080e-01
3.216249999999999942e-01
3.217499999999999805e-01
3.218749999999999667e-01
3.220000000000000084e-01
3.221249999999999947e-01
3.222499999999999809e-01
3.223749999999999671e-01
3.225000000000000089e-01
3.226249999999999951e-01
3.227499999999999813e-01
3.228749999999999676e-01
3.230000000000000093e-01
3.231249999999999956e-01
3.232499999999999818e-01
3.233749999999999680e-01
3.235000000000000098e-01
3.236249999999999960e-01
3.237499999999999822e-01
3.238749999999999685e-01
3.240000000000000102e-01
3.241249999999999964e-01
3.242499999999999827e-01
3.243749999999999689e-01
3.245000000000000107e-01
3.246249999999999969e-01
3.247499999999999831e-01
3.248749999999999694e-01
3.250000000000000111e-01
3.251249999999999973e-01
3.252499999999999836e-01
3.253749999999999698e-01
3.255000000000000115e-01
3.256249999999999978e-01
3.257499999999999840e-01
3.258749999999999702e-01
3.260000000000000120e-01
3.261249999999999982e-01
3.262499999999999845e-01
3.263749999999999707e-01
3.265000000000000124e-01
3.266249999999999987e-01
3.267499999999999849e-01
3.268749999999999711e-01
3.270000000000000129e-01
3.271249999999999991e-01
3.272499999999999853e-01
3.273749999999999716e-01
3.275000000000000133e-01
3.276249999999999996e-01
3.277499999999999858e-01
3.278749999999999720e-01
3.280000000000000138e-01
3.281250000000000000e-01
3.282499999999999862e-01
3.283749999999999725e-01
3.285000000000000142e-01
3.286250000000000004e-01
3.287499999999999867e-01
3.288749999999999729e-01
3.290000000000000147e-01
3.291250000000000009e-01
3.292499999999999871e-01
3.293749999999999734e-01
3.295000000000000151e-01
3.296250000000000013e-01
3.297499999999999876e-01
3.298749999999999738e-01
3.299999999999999600e-01
3.301250000000000018e-01
3.302499999999999880e-01
3.303749999999999742e-01
3.305000000000000160e-01
3.306250000000000022e-01
3.307499999999999885e-01
3.308749999999999747e-01
3.309999999999999609e-01
3.311250000000000027e-01
3.312499999999999889e-01
3.313749999999999751e-01
3.315000000000000169e-01
3.316250000000000031e-01
3.317499999999999893e-01
3.318749999999999756e-01
3.319999999999999618e-01
3.321250000000000036e-01
3.322499999999999898e-01
3.323749999999999760e-01
3.325000000000000178e-01
3.326250000000000040e-01
3.327499999999999902e-01
3.328749999999999765e-01
3.329999999999999627e-01
3.331250000000000044e-01
3.332499999999999907e-01
3.333749999999999769e-01
3.335000000000000187e-01
3.336250000000000049e-01
3.337499999999999911e-01
3.338749999999999774e-01
3.339999999999999636e-01
3.341250000000000053e-01
3.342499999999999916e-01
3.343749999999999778e-01
3.345000000000000195e-01
3.346250000000000058e-01
3.347499999999999920e-01
3.348749999999999782e-01
3.349999999999999645e-01
3.351250000000000062e-01
3.352499999999999925e-01
3.353749999999999787e-01
3.355000000000000204e-01
3.356250000000000067e-01
3.357499999999999929e-01
3.358749999999999791e-01
3.359999999999999654e-01
3.361250000000000071e-01
3.362499999999999933e-01
3.363749999999999796e-01
3.364999999999999658e-01
3.366250000000000075e-01
3.367499999999999938e-01
3.368749999999999800e-01
3.369999999999999662e-01
3.371250000000000080e-01
3.372499999999999942e-01
3.373749999999999805e-01
3.374999999999999667e-01
3.376250000000000084e-01
3.377499999999999947e-01
3.378749999999999809e-01
3.379999999999999671e-01
3.381250000000000089e-01
3.382499999999999951e-01
3.383749999999999813e-01
3.384999999999999676e-01
3.386250000000000093e-01
3.387499999999999956e-01
3.388749999999999818e-01
3.389999999999999680e-01
3.391250000000000098e-01
3.392499999999999960e-01
3.393749999999999822e-01
3.394999999999999685e-01
3.396250000000000102e-01
3.397499999999999964e-01
3.398749999999999827e-01
3.399999999999999689e-01
3.401250000000000107e-01
3.402499999999999969e-01
3.403749999999999831e-01
3.404999999999999694e-01
3.406250000000000111e-01
3.407499999999999973e-01
3.408749999999999836e-01
3.409999999999999698e-01
3.411250000000000115e-01
3.412499999999999978e-01
3.413749999999999840e-01
3.414999999999999702e-01
3.416250000000000120e-01
3.417499999999999982e-01
3.418749999999999845e-01
3.419999999999999707e-01
3.421250000000000124e-01
3.422499999999999987e-01
3.423749999999999849e-01
3.424999999999999711e-01
3.426250000000000129e-01
3.427499999999999991e-01
3.428749999999999853e-01
3.429999999999999716e-01
3.431250000000000133e-01
3.432499999999999996e-01
3.433749999999999858e-01
3.434999999999999720e-01
3.436250000000000138e-01
3.437500000000000000e-01
3.438749999999999862e-01
3.439999999999999725e-01
3.441250000000000142e-01
3.442500000000000004e-01
3.443749999999999867e-01
3.444999999999999729e-01
3.446249999999999591e-01
3.447500000000000009e-01
3.448749999999999871e-01
3.449999999999999734e-01
3.451250000000000151e-01
3.452500000000000013e-01
3.453749999999999876e-01
3.454999999999999738e-01
3.456249999999999600e-01
3.457500000000000018e-01
3.458749999999999880e-01
3.459999999999999742e-01
3.461250000000000160e-01
3.462500000000000022e-01
3.463749999999999885e-01
3.464999999999999747e-01
3.466249999999999609e-01
3.467500000000000027e-01
3.468749999999999889e-01
3.469999999999999751e-01
3.471250000000000169e-01
3.472500000000000031e-01
3.473749999999999893e-01
3.474999999999999756e-01
3.476249999999999618e-01
3.477500000000000036e-01
3.478749999999999898e-01
3.479999999999999760e-01
3.481250000000000178e-01
3.482500000000000040e-01
3.483749999999999902e-01
3.484999999999999765e-01
3.486249999999999627e-01
3.487500000000000044e-01
3.488749999999999907e-01
3.489999999999999769e-01
3.491250000000000187e-01
3.492500000000000049e-01
3.493749999999999911e-01
3.494999999999999774e-01
3.496249999999999636e-01
3.497500000000000053e-01
3.498749999999999916e-01
3.499999999999999778e-01
3.501249999999999640e-01
3.502499999999999503e-01
3.503749999999999920e-01
3.504999999999999782e-01
3.506249999999999645e-01
3.507500000000000062e-01
3.508749999999999925e-01
3.509999999999999787e-01
3.511249999999999649e-01
3.512499999999999512e-01
3.513749999999999929e-01
3.514999999999999791e-01
3.516249999999999654e-01
3.517500000000000071e-01
3.518749999999999933e-01
3.519999999999999796e-01
3.521249999999999658e-01
3.522499999999999520e-01
3.523749999999999938e-01
3.524999999999999800e-01
3.526249999999999662e-01
3.527500000000000080e-01
3.528749999999999942e-01
3.529999999999999805e-01
3.531249999999999667e-01
3.532499999999999529e-01
3.533749999999999947e-01
3.534999999999999809e-01
3.536249999999999671e-01
3.537500000000000089e-01
3.538749999999999951e-01
3.539999999999999813e-01
3.541249999999999676e-01
3.542499999999999538e-01
3.543749999999999956e-01
3.544999999999999818e-01
3.546249999999999680e-01
3.547500000000000098e-01
3.548749999999999960e-01
3.549999999999999822e-01
3.551249999999999685e-01
3.552499999999999547e-01
3.553749999999999964e-01
3.554999999999999827e-01
3.556249999999999689e-01
3.557500000000000107e-01
3.558749999999999969e-01
3.559999999999999831e-01
3.561249999999999694e-01
3.562499999999999556e-01
3.563749999999999973e-01
3.564999999999999836e-01
3.566249999999999698e-01
3.567499999999999560e-01
3.568749999999999978e-01
3.569999999999999840e-01
3.571249999999999702e-01
3.572499999999999565e-01
3.573749999999999982e-01
3.574999999999999845e-01
3.576249999999999707e-01
3.577499999999999569e-01
3.578749999999999987e-01
3.579999999999999849e-01
3.581249999999999711e-01
3.582499999999999574e-01
3.583749999999999991e-01
3.584999999999999853e-01
3.586249999999999716e-01
3.587499999999999578e-01
3.588749999999999996e-01
3.589999999999999858e-01
3.591249999999999720e-01
3.592499999999999583e-01
3.593750000000000000e-01
3.594999999999999862e-01
3.596249999999999725e-01
3.597499999999999587e-01
3.598750000000000004e-01
3.599999999999999867e-01
3.601249999999999729e-01
3.602499999999999591e-01
3.603750000000000009e-01
3.604999999999999871e-01
3.606249999999999734e-01
3.607499999999999596e-01
3.608750000000000013e-01
3.609999999999999876e-01
3.611249999999999738e-01
3.612499999999999600e-01
3.613750000000000018e-01
3.614999999999999880e-01
3.616249999999999742e-01
3.617499999999999605e-01
3.618750000000000022e-01
3.619999999999999885e-01
3.621249999999999747e-01
3.622499999999999609e-01
3.623750000000000027e-01
3.624999999999999889e-01
3.626249999999999751e-01
3.627499999999999614e-01
3.628750000000000031e-01
3.629999999999999893e-01
3.631249999999999756e-01
3.632499999999999618e-01
3.633750000000000036e-01
3.634999999999999898e-01
3.636249999999999760e-01
3.637499999999999623e-01
3.638749999999999485e-01
3.639999999999999902e-01
3.641249999999999765e-01
3.642499999999999627e-01
3.643750000000000044e-01
3.644999999999999907e-01
3.646249999999999769e-01
3.647499999999999631e-01
3.648749999999999494e-01
3.649999999999999911e-01
3.651249999999999774e-01
3.652499999999999636e-01
3.653750000000000053e-01
3.654999999999999916e-01
3.656249999999999778e-01
3.657499999999999640e-01
3.658749999999999503e-01
3.659999999999999920e-01
3.661249999999999782e-01
3.662499999999999645e-01
3.663750000000000062e-01
3.664999999999999925e-01
3.666249999999999787e-01
3.667499999999999649e-01
3.668749999999999512e-01
3.669999999999999929e-01
3.671249999999999791e-01
3.672499999999999654e-01
3.673750000000000071e-01
3.674999999999999933e-01
3.676249999999999796e-01
3.677499999999999658e-01
3.678749999999999520e-01
3.679999999999999938e-01
3.681249999999999800e-01
3.682499999999999662e-01
3.683750000000000080e-01
3.684999999999999942e-01
3.686249999999999805e-01
3.687499999999999667e-01
3.688749999999999529e-01
3.689999999999999947e-01
3.691249999999999809e-01
3.692499999999999671e-01
3.693750000000000089e-01
3.694999999999999951e-01
3.696249999999999813e-01
3.697499999999999676e-01
3.698749999999999538e-01
3.699999999999999956e-01
3.701249999999999818e-01
3.702499999999999680e-01
3.703749999999999543e-01
3.704999999999999960e-01
3.706249999999999822e-01
3.707499999999999685e-01
3.708749999999999547e-01
3.709999999999999964e-01
3.711249999999999827e-01
3.712499999999999689e-01
3.713749999999999551e-01
3.714999999999999969e-01
3.716249999999999831e-01
3.717499999999999694e-01
3.718749999999999556e-01
3.719999999999999973e-01
3.721249999999999836e-01
3.722499999999999698e-01
3.723749999999999560e-01
3.724999999999999978e-01
3.726249999999999840e-01
3.727499999999999702e-01
3.728749999999999565e-01
3.729999999999999982e-01
3.731249999999999845e-01
3.732499999999999707e-01
3.733749999999999569e-01
3.734999999999999987e-01
3.736249999999999849e-01
3.737499999999999711e-01
3.738749999999999574e-01
3.739999999999999991e-01
3.741249999999999853e-01
3.742499999999999716e-01
3.743749999999999578e-01
3.744999999999999996e-01
3.746249999999999858e-01
3.747499999999999720e-01
3.748749999999999583e-01
3.750000000000000000e-01
3.751249999999999862e-01
3.752499999999999725e-01
3.753749999999999587e-01
3.755000000000000004e-01
3.756249999999999867e-01
3.757499999999999729e-01
3.758749999999999591e-01
3.760000000000000009e-01
3.761249999999999871e-01
3.762499999999999734e-01
3.763749999999999596e-01
3.765000000000000013e-01
3.766249999999999876e-01
3.767499999999999738e-01
3.768749999999999600e-01
3.770000000000000018e-01
3.771249999999999880e-01
3.772499999999999742e-01
3.773749999999999605e-01
3.775000000000000022e-01
3.776249999999999885e-01
3.777499999999999747e-01
3.778749999999999609e-01
3.780000000000000027e-01
3.781249999999999889e-01
3.782499999999999751e-01
3.783749999999999614e-01
3.785000000000000031e-01
3.786249999999999893e-01
3.787499999999999756e-01
3.788749999999999618e-01
3.790000000000000036e-01
3.791249999999999898e-01
3.792499999999999760e-01
3.793749999999999623e-01
3.795000000000000040e-01
3.796249999999999902e-01
3.797499999999999765e-01
3.798749999999999627e-01
3.800000000000000044e-01
3.801249999999999907e-01
3.802499999999999769e-01
3.803749999999999631e-01
3.805000000000000049e-01
3.806249999999999911e-01
3.807499999999999774e-01
3.808749999999999636e-01
3.810000000000000053e-01
3.811249999999999916e-01
3.812499999999999778e-01
3.813749999999999640e-01
3.815000000000000058e-01
3.816249999999999920e-01
3.817499999999999782e-01
3.818749999999999645e-01
3.820000000000000062e-01
3.821249999999999925e-01
3.822499999999999787e-01
3.823749999999999649e-01
3.824999999999999512e-01
3.826249999999999929e-01
3.827499999999999791e-01
3.828749999999999654e-01
3.830000000000000071e-01
3.831249999999999933e-01
3.832499999999999796e-01
3.833749999999999658e-01
3.834999999999999520e-01
3.836249999999999938e-01
3.837499999999999800e-01
3.838749999999999662e-01
3.840000000000000080e-01
3.841249999999999942e-01
3.842499999999999805e-01
3.843749999999999667e-01
3.844999999999999529e-01
3.846249999999999947e-01
3.847499999999999809e-01
3.848749999999999671e-01
3.849999999999999534e-01
3.851249999999999951e-01
3.852499999999999813e-01
3.853749999999999676e-01
3.854999999999999538e-01
3.856249999999999956e-01
3.857499999999999818e-01
3.858749999999999680e-01
3.859999999999999543e-01
3.861249999999999960e-01
3.862499999999999822e-01
3.863749999999999685e-01
3.864999999999999547e-01
3.866249999999999964e-01
3.867499999999999827e-01
3.868749999999999689e-01
3.869999999999999551e-01
3.871249999999999969e-01
3.872499999999999831e-01
3.873749999999999694e-01
3.874999999999999556e-01
3.876249999999999973e-01
3.877499999999999836e-01
3.878749999999999698e-01
3.879999999999999560e-01
3.881249999999999978e-01
3.882499999999999840e-01
3.883749999999999702e-01
3.884999999999999565e-01
3.886249999999999982e-01
3.887499999999999845e-01
3.888749999999999707e-01
3.889999999999999569e-01
3.891249999999999987e-01
3.892499999999999849e-01
3.893749999999999711e-01
3.894999999999999574e-01
3.896249999999999991e-01
3.897499999999999853e-01
3.898749999999999716e-01
3.899999999999999578e-01
3.901249999999999996e-01
3.902499999999999858e-01
3.903749999999999720e-01
3.904999999999999583e-01
3.906250000000000000e-01
3.907499999999999862e-01
3.908749999999999725e-01
3.909999999999999587e-01
3.911250000000000004e-01
3.912499999999999867e-01
3.913749999999999729e-01
3.914999999999999591e-01
3.916250000000000009e-01
3.917499999999999871e-01
3.918749999999999734e-01
3.919999999999999596e-01
3.921250000000000013e-01
3.922499999999999876e-01
3.923749999999999738e-01
3.924999999999999600e-01
3.926250000000000018e-01
3.927499999999999880e-01
3.928749999999999742e-01
3.929999999999999605e-01
3.931250000000000022e-01
3.932499999999999885e-01
3.933749999999999747e-01
3.934999999999999609e-01
3.936250000000000027e-01
3.937499999999999889e-01
3.938749999999999751e-01
3.939999999999999614e-01
3.941250000000000031e-01
3.942499999999999893e-01
3.943749999999999756e-01
3.944999999999999618e-01
3.946250000000000036e-01
3.947499999999999898e-01
3.948749999999999760e-01
3.949999999999999623e-01
3.951250000000000040e-01
3.952499999999999902e-01
3.953749999999999765e-01
3.954999999999999627e-01
3.956250000000000044e-01
3.957499999999999907e-01
3.958749999999999769e-01
3.959999999999999631e-01
3.961250000000000049e-01
3.962499999999999911e-01
3.963749999999999774e-01
3.964999999999999636e-01
3.966250000000000053e-01
3.967499999999999916e-01
3.968749999999999778e-01
3.969999999999999640e-01
3.971250000000000058e-01
3.972499999999999920e-01
3.973749999999999782e-01
3.974999999999999645e-01
3.976250000000000062e-01
3.977499999999999925e-01
3.978749999999999787e-01
3.979999999999999649e-01
3.981250000000000067e-01
3.982499999999999929e-01
3.983749999999999791e-01
3.984999999999999654e-01
3.986250000000000071e-01
3.987499999999999933e-01
3.988749999999999796e-01
3.989999999999999658e-01
3.991250000000000075e-01
3.992499999999999938e-01
3.993749999999999800e-01
3.994999999999999662e-01
3.996250000000000080e-01
3.997499999999999942e-01
3.998749999999999805e-01
4.000000000000000222e-01
4.001250000000000084e-01
4.002499999999999947e-01
4.003750000000000364e-01
4.005000000000000226e-01
4.006250000000000089e-01
4.007499999999999951e-01
4.008750000000000369e-01
4.010000000000000231e-01
4.011250000000000093e-01
4.012499999999999956e-01
4.013750000000000373e-01
4.015000000000000235e-01
4.016250000000000098e-01
4.017499999999999960e-01
4.018750000000000377e-01
4.020000000000000240e-01
4.021250000000000102e-01
4.022499999999999964e-01
4.023750000000000382e-01
4.025000000000000244e-01
4.026250000000000107e-01
4.027499999999999969e-01
4.028750000000000386e-01
4.030000000000000249e-01
4.031250000000000111e-01
4.032499999999999973e-01
4.033750000000000391e-01
4.035000000000000253e-01
4.036250000000000115e-01
4.037499999999999978e-01
4.038750000000000395e-01
4.040000000000000258e-01
4.041250000000000120e-01
4.042499999999999982e-01
4.043750000000000400e-01
4.045000000000000262e-01
4.046250000000000124e-01
4.047499999999999987e-01
4.048750000000000404e-01
4.050000000000000266e-01
4.051250000000000129e-01
4.052499999999999991e-01
4.053750000000000409e-01
4.055000000000000271e-01
4.056250000000000133e-01
4.057499999999999996e-01
4.058750000000000413e-01
4.060000000000000275e-01
4.061250000000000138e-01
4.062500000000000000e-01
4.063750000000000417e-01
4.065000000000000280e-01
4.066250000000000142e-01
4.067500000000000004e-01
4.068750000000000422e-01
4.070000000000000284e-01
4.071250000000000147e-01
4.072500000000000009e-01
4.073750000000000426e-01
4.075000000000000289e-01
4.076250000000000151e-01
4.077500000000000013e-01
4.078750000000000431e-01
4.080000000000000293e-01
4.081250000000000155e-01
4.082500000000000018e-01
4.083750000000000435e-01
4.085000000000000298e-01
4.086250000000000160e-01
4.087500000000000022e-01
4.088750000000000440e-01
4.090000000000000302e-01
4.091250000000000164e-01
4.092500000000000027e-01
4.093750000000000444e-01
4.095000000000000306e-01
4.096250000000000169e-01
4.097500000000000031e-01
4.098750000000000449e-01
4.100000000000000311e-01
4.101250000000000173e-01
4.102500000000000036e-01
4.103750000000000453e-01
4.105000000000000315e-01
4.106250000000000178e-01
4.107500000000000040e-01
4.108750000000000457e-01
4.110000000000000320e-01
4.111250000000000182e-01
4.112500000000000044e-01
4.113750000000000462e-01
4.115000000000000324e-01
4.116250000000000187e-01
4.117500000000000049e-01
4.118750000000000466e-01
4.120000000000000329e-01
4.121250000000000191e-01
4.122500000000000053e-01
4.123750000000000471e-01
4.125000000000000333e-01
4.126250000000000195e-01
4.127500000000000058e-01
4.128750000000000475e-01
4.130000000000000338e-01
4.131250000000000200e-01
4.132500000000000062e-01
4.133750000000000480e-01
4.135000000000000342e-01
4.136250000000000204e-01
4.137500000000000067e-01
4.138750000000000484e-01
4.140000000000000346e-01
4.141250000000000209e-01
4.142500000000000071e-01
4.143750000000000488e-01
4.145000000000000351e-01
4.146250000000000213e-01
4.147500000000000075e-01
4.148750000000000493e-01
4.150000000000000355e-01
4.151250000000000218e-01
4.152500000000000080e-01
4.153750000000000497e-01
4.155000000000000360e-01
4.156250000000000222e-01
4.157500000000000084e-01
4.158749999999999947e-01
4.160000000000000364e-01
4.161250000000000226e-01
4.162500000000000089e-01
4.163750000000000506e-01
4.165000000000000369e-01
4.166250000000000231e-01
4.167500000000000093e-01
4.168749999999999956e-01
4.170000000000000373e-01
4.171250000000000235e-01
4.172500000000000098e-01
4.173750000000000515e-01
4.175000000000000377e-01
4.176250000000000240e-01
4.177500000000000102e-01
4.178749999999999964e-01
4.180000000000000382e-01
4.181250000000000244e-01
4.182500000000000107e-01
4.183749999999999969e-01
4.185000000000000386e-01
4.186250000000000249e-01
4.187500000000000111e-01
4.188749999999999973e-01
4.190000000000000391e-01
4.191250000000000253e-01
4.192500000000000115e-01
4.193749999999999978e-01
4.195000000000000395e-01
4.196250000000000258e-01
4.197500000000000120e-01
4.198749999999999982e-01
4.200000000000000400e-01
4.201250000000000262e-01
4.202500000000000124e-01
4.203749999999999987e-01
4.205000000000000404e-01
4.206250000000000266e-01
4.207500000000000129e-01
4.208749999999999991e-01
4.210000000000000409e-01
4.211250000000000271e-01
4.212500000000000133e-01
4.213749999999999996e-01
4.215000000000000413e-01
4.216250000000000275e-01
4.217500000000000138e-01
4.218750000000000000e-01
4.220000000000000417e-01
4.221250000000000280e-01
4.222500000000000142e-01
4.223750000000000004e-01
4.225000000000000422e-01
4.226250000000000284e-01
4.227500000000000147e-01
4.228750000000000009e-01
4.230000000000000426e-01
4.231250000000000289e-01
4.232500000000000151e-01
4.233750000000000013e-01
4.235000000000000431e-01
4.236250000000000293e-01
4.237500000000000155e-01
4.238750000000000018e-01
4.240000000000000435e-01
4.241250000000000298e-01
4.242500000000000160e-01
4.243750000000000022e-01
4.245000000000000440e-01
4.246250000000000302e-01
4.247500000000000164e-01
4.248750000000000027e-01
4.250000000000000444e-01
4.251250000000000306e-01
4.252500000000000169e-01
4.253750000000000031e-01
4.255000000000000449e-01
4.256250000000000311e-01
4.257500000000000173e-01
4.258750000000000036e-01
4.260000000000000453e-01
4.261250000000000315e-01
4.262500000000000178e-01
4.263750000000000040e-01
4.265000000000000457e-01
4.266250000000000320e-01
4.267500000000000182e-01
4.268750000000000044e-01
4.270000000000000462e-01
4.271250000000000324e-01
4.272500000000000187e-01
4.273750000000000049e-01
4.275000000000000466e-01
4.276250000000000329e-01
4.277500000000000191e-01
4.278750000000000053e-01
4.280000000000000471e-01
4.281250000000000333e-01
4.282500000000000195e-01
4.283750000000000058e-01
4.285000000000000475e-01
4.286250000000000338e-01
4.287500000000000200e-01
4.288750000000000062e-01
4.290000000000000480e-01
4.291250000000000342e-01
4.292500000000000204e-01
4.293750000000000067e-01
4.295000000000000484e-01
4.296250000000000346e-01
4.297500000000000209e-01
4.298750000000000071e-01
4.300000000000000488e-01
4.301250000000000351e-01
4.302500000000000213e-01
4.303750000000000075e-01
4.304999999999999938e-01
4.306250000000000355e-01
4.307500000000000218e-01
4.308750000000000080e-01
4.310000000000000497e-01
4.311250000000000360e-01
4.312500000000000222e-01
4.313750000000000084e-01
4.314999999999999947e-01
4.316250000000000364e-01
4.317500000000000226e-01
4.318750000000000089e-01
4.320000000000000506e-01
4.321250000000000369e-01
4.322500000000000231e-01
4.323750000000000093e-01
4.324999999999999956e-01
4.326250000000000373e-01
4.327500000000000235e-01
4.328750000000000098e-01
4.330000000000000515e-01
4.331250000000000377e-01
4.332500000000000240e-01
4.333750000000000102e-01
4.334999999999999964e-01
4.336250000000000382e-01
4.337500000000000244e-01
4.338750000000000107e-01
4.340000000000000524e-01
4.341250000000000386e-01
4.342500000000000249e-01
4.343750000000000111e-01
4.344999999999999973e-01
4.346250000000000391e-01
4.347500000000000253e-01
4.348750000000000115e-01
4.350000000000000533e-01
4.351250000000000395e-01
4.352500000000000258e-01
4.353750000000000120e-01
4.354999999999999982e-01
4.356250000000000400e-01
4.357500000000000262e-01
4.358750000000000124e-01
4.360000000000000542e-01
4.361250000000000404e-01
4.362500000000000266e-01
4.363750000000000129e-01
4.364999999999999991e-01
4.366250000000000409e-01
4.367500000000000271e-01
4.368750000000000133e-01
4.369999999999999996e-01
4.371250000000000413e-01
4.372500000000000275e-01
4.373750000000000138e-01
4.375000000000000000e-01
4.376250000000000417e-01
4.377500000000000280e-01
4.378750000000000142e-01
4.380000000000000004e-01
4.381250000000000422e-01
4.382500000000000284e-01
4.383750000000000147e-01
4.385000000000000009e-01
4.386250000000000426e-01
4.387500000000000289e-01
4.388750000000000151e-01
4.390000000000000013e-01
4.391250000000000431e-01
4.392500000000000293e-01
4.393750000000000155e-01
4.395000000000000018e-01
4.396250000000000435e-01
4.397500000000000298e-01
4.398750000000000160e-01
4.400000000000000022e-01
4.401250000000000440e-01
4.402500000000000302e-01
4.403750000000000164e-01
4.405000000000000027e-01
4.406250000000000444e-01
4.407500000000000306e-01
4.408750000000000169e-01
4.410000000000000031e-01
4.411250000000000449e-01
4.412500000000000311e-01
4.413750000000000173e-01
4.415000000000000036e-01
4.416250000000000453e-01
4.417500000000000315e-01
4.418750000000000178e-01
4.420000000000000040e-01
4.421250000000000457e-01
4.422500000000000320e-01
4.423750000000000182e-01
4.425000000000000044e-01
4.426250000000000462e-01
4.427500000000000324e-01
4.428750000000000187e-01
4.430000000000000049e-01
4.431250000000000466e-01
4.432500000000000329e-01
4.433750000000000191e-01
4.435000000000000053e-01
4.436250000000000471e-01
4.437500000000000333e-01
4.438750000000000195e-01
4.440000000000000058e-01
4.441249999999999920e-01
4.442500000000000338e-01
4.443750000000000200e-01
4.445000000000000062e-01
4.446250000000000480e-01
4.447500000000000342e-01
4.448750000000000204e-01
4.450000000000000067e-01
4.451249999999999929e-01
4.452500000000000346e-01
4.453750000000000209e-01
4.455000000000000071e-01
4.456250000000000488e-01
4.457500000000000351e-01
4.458750000000000213e-01
4.460000000000000075e-01
4.461249999999999938e-01
4.462500000000000355e-01
4.463750000000000218e-01
4.465000000000000080e-01
4.466250000000000497e-01
4.467500000000000360e-01
4.468750000000000222e-01
4.470000000000000084e-01
4.471249999999999947e-01
4.472500000000000364e-01
4.473750000000000226e-01
4.475000000000000089e-01
4.476250000000000506e-01
4.477500000000000369e-01
4.478750000000000231e-01
4.480000000000000093e-01
4.481249999999999956e-01
4.482500000000000373e-01
4.483750000000000235e-01
4.485000000000000098e-01
4.486250000000000515e-01
4.487500000000000377e-01
4.488750000000000240e-01
4.490000000000000102e-01
4.491249999999999964e-01
4.492500000000000382e-01
4.493750000000000244e-01
4.495000000000000107e-01
4.496250000000000524e-01
4.497500000000000386e-01
4.498750000000000249e-01
4.500000000000000111e-01
4.501249999999999973e-01
4.502500000000000391e-01
4.503750000000000253e-01
4.505000000000000115e-01
4.506249999999999978e-01
4.507499999999999840e-01
4.508750000000000258e-01
4.510000000000000120e-01
4.511249999999999982e-01
4.512500000000000400e-01
4.513750000000000262e-01
4.515000000000000124e-01
4.516249999999999987e-01
4.517499999999999849e-01
4.518750000000000266e-01
4.520000000000000129e-01
4.521249999999999991e-01
4.522500000000000409e-01
4.523750000000000271e-01
4.525000000000000133e-01
4.526249999999999996e-01
4.527499999999999858e-01
4.528750000000000275e-01
4.530000000000000138e-01
4.531250000000000000e-01
4.532500000000000417e-01
4.533750000000000280e-01
4.535000000000000142e-01
4.536250000000000004e-01
4.537499999999999867e-01
4.538750000000000284e-01
4.540000000000000147e-01
4.541250000000000009e-01
4.542500000000000426e-01
4.543750000000000289e-01
4.545000000000000151e-01
4.546250000000000013e-01
4.547499999999999876e-01
4.548750000000000293e-01
4.550000000000000155e-01
4.551250000000000018e-01
4.552500000000000435e-01
4.553750000000000298e-01
4.555000000000000160e-01
4.556250000000000022e-01
4.557499999999999885e-01
4.558750000000000302e-01
4.560000000000000164e-01
4.561250000000000027e-01
4.562499999999999889e-01
4.563750000000000306e-01
4.565000000000000169e-01
4.566250000000000031e-01
4.567499999999999893e-01
4.568750000000000311e-01
4.570000000000000173e-01
4.571250000000000036e-01
4.572499999999999898e-01
4.573750000000000315e-01
4.575000000000000178e-01
4.576250000000000040e-01
4.577499999999999902e-01
4.578750000000000320e-01
4.580000000000000182e-01
4.581250000000000044e-01
4.582499999999999907e-01
4.583750000000000324e-01
4.585000000000000187e-01
4.586250000000000049e-01
4.587499999999999911e-01
4.588750000000000329e-01
4.590000000000000191e-01
4.591250000000000053e-01
4.592499999999999916e-01
4.593750000000000333e-01
4.595000000000000195e-01
4.596250000000000058e-01
4.597499999999999920e-01
4.598750000000000338e-01
4.600000000000000200e-01
4.601250000000000062e-01
4.602499999999999925e-01
4.603750000000000342e-01
4.605000000000000204e-01
4.606250000000000067e-01
4.607499999999999929e-01
4.608750000000000346e-01
4.610000000000000209e-01
4.611250000000000071e-01
4.612499999999999933e-01
4.613750000000000351e-01
4.615000000000000213e-01
4.616250000000000075e-01
4.617499999999999938e-01
4.618750000000000355e-01
4.620000000000000218e-01
4.621250000000000080e-01
4.622499999999999942e-01
4.623750000000000360e-01
4.625000000000000222e-01
4.626250000000000084e-01
4.627499999999999947e-01
4.628750000000000364e-01
4.630000000000000226e-01
4.631250000000000089e-01
4.632499999999999951e-01
4.633750000000000369e-01
4.635000000000000231e-01
4.636250000000000093e-01
4.637499999999999956e-01
4.638750000000000373e-01
4.640000000000000235e-01
4.641250000000000098e-01
4.642499999999999960e-01
4.643749999999999822e-01
4.645000000000000240e-01
4.646250000000000102e-01
4.647499999999999964e-01
4.648750000000000382e-01
4.650000000000000244e-01
4.651250000000000107e-01
4.652499999999999969e-01
4.653749999999999831e-01
4.655000000000000249e-01
4.656250000000000111e-01
4.657499999999999973e-01
4.658750000000000391e-01
4.660000000000000253e-01
4.661250000000000115e-01
4.662499999999999978e-01
4.663749999999999840e-01
4.665000000000000258e-01
4.666250000000000120e-01
4.667499999999999982e-01
4.668750000000000400e-01
4.670000000000000262e-01
4.671250000000000124e-01
4.672499999999999987e-01
4.673749999999999849e-01
4.675000000000000266e-01
4.676250000000000129e-01
4.677499999999999991e-01
4.678750000000000409e-01
4.680000000000000271e-01
4.681250000000000133e-01
4.682499999999999996e-01
4.683749999999999858e-01
4.685000000000000275e-01
4.686250000000000138e-01
4.687500000000000000e-01
4.688750000000000417e-01
4.690000000000000280e-01
4.691250000000000142e-01
4.692500000000000004e-01
4.693749999999999867e-01
4.695000000000000284e-01
4.696250000000000147e-01
4.697500000000000009e-01
4.698750000000000426e-01
4.700000000000000289e-01
4.701250000000000151e-01
4.702500000000000013e-01
4.703749999999999876e-01
4.705000000000000293e-01
4.706250000000000155e-01
4.707500000000000018e-01
4.708749999999999880e-01
4.710000000000000298e-01
4.711250000000000160e-01
4.712500000000000022e-01
4.713749999999999885e-01
4.715000000000000302e-01
4.716250000000000164e-01
4.717500000000000027e-01
4.718749999999999889e-01
4.720000000000000306e-01
4.721250000000000169e-01
4.722500000000000031e-01
4.723749999999999893e-01
4.725000000000000311e-01
4.726250000000000173e-01
4.727500000000000036e-01
4.728749999999999898e-01
4.730000000000000315e-01
4.731250000000000178e-01
4.732500000000000040e-01
4.733749999999999902e-01
4.735000000000000320e-01
4.736250000000000182e-01
4.737500000000000044e-01
4.738749999999999907e-01
4.740000000000000324e-01
4.741250000000000187e-01
4.742500000000000049e-01
4.743749999999999911e-01
4.745000000000000329e-01
4.746250000000000191e-01
4.747500000000000053e-01
4.748749999999999916e-01
4.750000000000000333e-01
4.751250000000000195e-01
4.752500000000000058e-01
4.753749999999999920e-01
4.755000000000000338e-01
4.756250000000000200e-01
4.757500000000000062e-01
4.758749999999999925e-01
4.760000000000000342e-01
4.761250000000000204e-01
4.762500000000000067e-01
4.763749999999999929e-01
4.765000000000000346e-01
4.766250000000000209e-01
4.767500000000000071e-01
4.768749999999999933e-01
4.770000000000000351e-01
4.771250000000000213e-01
4.772500000000000075e-01
4.773749999999999938e-01
4.775000000000000355e-01
4.776250000000000218e-01
4.777500000000000080e-01
4.778749999999999942e-01
4.780000000000000360e-01
4.781250000000000222e-01
4.782500000000000084e-01
4.783749999999999947e-01
4.785000000000000364e-01
4.786250000000000226e-01
4.787500000000000089e-01
4.788749999999999951e-01
4.790000000000000369e-01
4.791250000000000231e-01
4.792500000000000093e-01
4.793749999999999956e-01
4.795000000000000373e-01
4.796250000000000235e-01
4.797500000000000098e-01
4.798749999999999960e-01
4.800000000000000377e-01
4.801250000000000240e-01
4.802500000000000102e-01
4.803749999999999964e-01
4.805000000000000382e-01
4.806250000000000244e-01
4.807500000000000107e-01
4.808749999999999969e-01
4.810000000000000386e-01
4.811250000000000249e-01
4.812500000000000111e-01
4.813749999999999973e-01
4.815000000000000391e-01
4.816250000000000253e-01
4.817500000000000115e-01
4.818749999999999978e-01
4.819999999999999840e-01
4.821250000000000258e-01
4.822500000000000120e-01
4.823749999999999982e-01
4.825000000000000400e-01
4.826250000000000262e-01
4.827500000000000124e-01
4.828749999999999987e-01
4.829999999999999849e-01
4.831250000000000266e-01
4.832500000000000129e-01
4.833749999999999991e-01
4.835000000000000409e-01
4.836250000000000271e-01
4.837500000000000133e-01
4.838749999999999996e-01
4.839999999999999858e-01
4.841250000000000275e-01
4.842500000000000138e-01
4.843750000000000000e-01
4.845000000000000417e-01
4.846250000000000280e-01
4.847500000000000142e-01
4.848750000000000004e-01
4.849999999999999867e-01
4.851250000000000284e-01
4.852500000000000147e-01
4.853750000000000009e-01
4.854999999999999871e-01
4.856250000000000289e-01
4.857500000000000151e-01
4.858750000000000013e-01
4.859999999999999876e-01
4.861250000000000293e-01
4.862500000000000155e-01
4.863750000000000018e-01
4.864999999999999880e-01
4.866250000000000298e-01
4.867500000000000160e-01
4.868750000000000022e-01
4.869999999999999885e-01
4.871250000000000302e-01
4.872500000000000164e-01
4.873750000000000027e-01
4.874999999999999889e-01
4.876250000000000306e-01
4.877500000000000169e-01
4.878750000000000031e-01
4.879999999999999893e-01
4.881250000000000311e-01
4.882500000000000173e-01
4.883750000000000036e-01
4.884999999999999898e-01
4.886250000000000315e-01
4.887500000000000178e-01
4.888750000000000040e-01
4.889999999999999902e-01
4.891250000000000320e-01
4.892500000000000182e-01
4.893750000000000044e-01
4.894999999999999907e-01
4.896250000000000324e-01
4.897500000000000187e-01
4.898750000000000049e-01
4.899999999999999911e-01
4.901250000000000329e-01
4.902500000000000191e-01
4.903750000000000053e-01
4.904999999999999916e-01
4.906250000000000333e-01
4.907500000000000195e-01
4.908750000000000058e-01
4.909999999999999920e-01
4.911250000000000338e-01
4.912500000000000200e-01
4.913750000000000062e-01
4.914999999999999925e-01
4.916250000000000342e-01
4.917500000000000204e-01
4.918750000000000067e-01
4.919999999999999929e-01
4.921250000000000346e-01
4.922500000000000209e-01
4.923750000000000071e-01
4.924999999999999933e-01
4.926250000000000351e-01
4.927500000000000213e-01
4.928750000000000075e-01
4.929999999999999938e-01
4.931250000000000355e-01
4.932500000000000218e-01
4.933750000000000080e-01
4.934999999999999942e-01
4.936250000000000360e-01
4.937500000000000222e-01
4.938750000000000084e-01
4.939999999999999947e-01
4.941250000000000364e-01
4.942500000000000226e-01
4.943750000000000089e-01
4.944999999999999951e-01
4.946250000000000369e-01
4.947500000000000231e-01
4.948750000000000093e-01
4.949999999999999956e-01
4.951250000000000373e-01
4.952500000000000235e-01
4.953750000000000098e-01
4.954999999999999960e-01
4.956250000000000377e-01
4.957500000000000240e-01
4.958750000000000102e-01
4.959999999999999964e-01
4.961250000000000382e-01
4.962500000000000244e-01
4.963750000000000107e-01
4.964999999999999969e-01
4.966250000000000386e-01
4.967500000000000249e-01
4.968750000000000111e-01
4.969999999999999973e-01
4.971250000000000391e-01
4.972500000000000253e-01
4.973750000000000115e-01
4.974999999999999978e-01
4.976250000000000395e-01
4.977500000000000258e-01
4.978750000000000120e-01
4.979999999999999982e-01
4.981250000000000400e-01
4.982500000000000262e-01
4.983750000000000124e-01
4.984999999999999987e-01
4.986250000000000404e-01
4.987500000000000266e-01
4.988750000000000129e-01
4.989999999999999991e-01
4.991250000000000409e-01
4.992500000000000271e-01
4.993750000000000133e-01
4.994999999999999996e-01
4.996250000000000413e-01
4.997500000000000275e-01
4.998750000000000138e-01
5.000000000000000000e-01
5.001250000000000417e-01
5.002499999999999725e-01
5.003750000000000142e-01
5.004999999999999449e-01
5.006249999999999867e-01
5.007500000000000284e-01
5.008749999999999591e-01
5.010000000000000009e-01
5.011250000000000426e-01
5.012499999999999734e-01
5.013750000000000151e-01
5.014999999999999458e-01
5.016249999999999876e-01
5.017500000000000293e-01
5.018749999999999600e-01
5.020000000000000018e-01
5.021250000000000435e-01
5.022499999999999742e-01
5.023750000000000160e-01
5.024999999999999467e-01
5.026249999999999885e-01
5.027500000000000302e-01
5.028749999999999609e-01
5.030000000000000027e-01
5.031250000000000444e-01
5.032499999999999751e-01
5.033750000000000169e-01
5.034999999999999476e-01
5.036249999999999893e-01
5.037500000000000311e-01
5.038749999999999618e-01
5.040000000000000036e-01
5.041250000000000453e-01
5.042499999999999760e-01
5.043750000000000178e-01
5.044999999999999485e-01
5.046249999999999902e-01
5.047500000000000320e-01
5.048749999999999627e-01
5.050000000000000044e-01
5.051250000000000462e-01
5.052499999999999769e-01
5.053750000000000187e-01
5.054999999999999494e-01
5.056249999999999911e-01
5.057500000000000329e-01
5.058749999999999636e-01
5.060000000000000053e-01
5.061250000000000471e-01
5.062499999999999778e-01
5.063750000000000195e-01
5.064999999999999503e-01
5.066249999999999920e-01
5.067500000000000338e-01
5.068749999999999645e-01
5.070000000000000062e-01
5.071250000000000480e-01
5.072499999999999787e-01
5.073750000000000204e-01
5.074999999999999512e-01
5.076249999999999929e-01
5.077500000000000346e-01
5.078749999999999654e-01
5.080000000000000071e-01
5.081250000000000488e-01
5.082499999999999796e-01
5.083750000000000213e-01
5.084999999999999520e-01
5.086249999999999938e-01
5.087500000000000355e-01
5.088749999999999662e-01
5.090000000000000080e-01
5.091250000000000497e-01
5.092499999999999805e-01
5.093750000000000222e-01
5.094999999999999529e-01
5.096249999999999947e-01
5.097500000000000364e-01
5.098749999999999671e-01
5.100000000000000089e-01
5.101250000000000506e-01
5.102499999999999813e-01
5.103750000000000231e-01
5.104999999999999538e-01
5.106249999999999956e-01
5.107500000000000373e-01
5.108749999999999680e-01
5.110000000000000098e-01
5.111250000000000515e-01
5.112499999999999822e-01
5.113750000000000240e-01
5.114999999999999547e-01
5.116249999999999964e-01
5.117500000000000382e-01
5.118749999999999689e-01
5.120000000000000107e-01
5.121250000000000524e-01
5.122499999999999831e-01
5.123750000000000249e-01
5.124999999999999556e-01
5.126249999999999973e-01
5.127500000000000391e-01
5.128749999999999698e-01
5.130000000000000115e-01
5.131250000000000533e-01
5.132499999999999840e-01
5.133750000000000258e-01
5.134999999999999565e-01
5.136249999999999982e-01
5.137500000000000400e-01
5.138749999999999707e-01
5.140000000000000124e-01
5.141250000000000542e-01
5.142499999999999849e-01
5.143750000000000266e-01
5.144999999999999574e-01
5.146249999999999991e-01
5.147500000000000409e-01
5.148749999999999716e-01
5.150000000000000133e-01
5.151250000000000551e-01
5.152499999999999858e-01
5.153750000000000275e-01
5.154999999999999583e-01
5.156250000000000000e-01
5.157500000000000417e-01
5.158749999999999725e-01
5.160000000000000142e-01
5.161249999999999449e-01
5.162499999999999867e-01
5.163750000000000284e-01
5.164999999999999591e-01
5.166250000000000009e-01
5.167500000000000426e-01
5.168749999999999734e-01
5.170000000000000151e-01
5.171250000000000568e-01
5.172499999999999876e-01
5.173750000000000293e-01
5.174999999999999600e-01
5.176250000000000018e-01
5.177500000000000435e-01
5.178749999999999742e-01
5.180000000000000160e-01
5.181249999999999467e-01
5.182499999999999885e-01
5.183750000000000302e-01
5.184999999999999609e-01
5.186250000000000027e-01
5.187500000000000444e-01
5.188749999999999751e-01
5.190000000000000169e-01
5.191249999999999476e-01
5.192499999999999893e-01
5.193750000000000311e-01
5.194999999999999618e-01
5.196250000000000036e-01
5.197500000000000453e-01
5.198749999999999760e-01
5.200000000000000178e-01
5.201249999999999485e-01
5.202499999999999902e-01
5.203750000000000320e-01
5.204999999999999627e-01
5.206250000000000044e-01
5.207500000000000462e-01
5.208749999999999769e-01
5.210000000000000187e-01
5.211249999999999494e-01
5.212499999999999911e-01
5.213750000000000329e-01
5.214999999999999636e-01
5.216250000000000053e-01
5.217500000000000471e-01
5.218749999999999778e-01
5.220000000000000195e-01
5.221249999999999503e-01
5.222499999999999920e-01
5.223750000000000338e-01
5.224999999999999645e-01
5.226250000000000062e-01
5.227500000000000480e-01
5.228749999999999787e-01
5.230000000000000204e-01
5.231249999999999512e-01
5.232499999999999929e-01
5.233750000000000346e-01
5.234999999999999654e-01
5.236250000000000071e-01
5.237500000000000488e-01
5.238749999999999796e-01
5.240000000000000213e-01
5.241249999999999520e-01
5.242499999999999938e-01
5.243750000000000355e-01
5.244999999999999662e-01
5.246250000000000080e-01
5.247500000000000497e-01
5.248749999999999805e-01
5.250000000000000222e-01
5.251249999999999529e-01
5.252499999999999947e-01
5.253750000000000364e-01
5.254999999999999671e-01
5.256250000000000089e-01
5.257500000000000506e-01
5.258749999999999813e-01
5.260000000000000231e-01
5.261249999999999538e-01
5.262499999999999956e-01
5.263750000000000373e-01
5.264999999999999680e-01
5.266250000000000098e-01
5.267500000000000515e-01
5.268749999999999822e-01
5.270000000000000240e-01
5.271249999999999547e-01
5.272499999999999964e-01
5.273750000000000382e-01
5.274999999999999689e-01
5.276250000000000107e-01
5.277500000000000524e-01
5.278749999999999831e-01
5.280000000000000249e-01
5.281249999999999556e-01
5.282499999999999973e-01
5.283750000000000391e-01
5.284999999999999698e-01
5.286250000000000115e-01
5.287500000000000533e-01
5.288749999999999840e-01
5.290000000000000258e-01
5.291249999999999565e-01
5.292499999999999982e-01
5.293750000000000400e-01
5.294999999999999707e-01
5.296250000000000124e-01
5.297500000000000542e-01
5.298749999999999849e-01
5.300000000000000266e-01
5.301249999999999574e-01
5.302499999999999991e-01
5.303750000000000409e-01
5.304999999999999716e-01
5.306250000000000133e-01
5.307500000000000551e-01
5.308749999999999858e-01
5.310000000000000275e-01
5.311249999999999583e-01
5.312500000000000000e-01
5.313750000000000417e-01
5.314999999999999725e-01
5.316250000000000142e-01
5.317499999999999449e-01
5.318749999999999867e-01
5.320000000000000284e-01
5.321249999999999591e-01
5.322500000000000009e-01
5.323750000000000426e-01
5.324999999999999734e-01
5.326250000000000151e-01
5.327500000000000568e-01
5.328749999999999876e-01
5.330000000000000293e-01
5.331249999999999600e-01
5.332500000000000018e-01
5.333750000000000435e-01
5.334999999999999742e-01
5.336250000000000160e-01
5.337499999999999467e-01
5.338749999999999885e-01
5.340000000000000302e-01
5.341249999999999609e-01
5.342500000000000027e-01
5.343750000000000444e-01
5.344999999999999751e-01
5.346250000000000169e-01
5.347500000000000586e-01
5.348749999999999893e-01
5.350000000000000311e-01
5.351249999999999618e-01
5.352500000000000036e-01
5.353750000000000453e-01
5.354999999999999760e-01
5.356250000000000178e-01
5.357499999999999485e-01
5.358749999999999902e-01
5.360000000000000320e-01
5.361249999999999627e-01
5.362500000000000044e-01
5.363750000000000462e-01
5.364999999999999769e-01
5.366250000000000187e-01
5.367499999999999494e-01
5.368749999999999911e-01
5.370000000000000329e-01
5.371249999999999636e-01
5.372500000000000053e-01
5.373750000000000471e-01
5.374999999999999778e-01
5.376250000000000195e-01
5.377499999999999503e-01
5.378749999999999920e-01
5.380000000000000338e-01
5.381249999999999645e-01
5.382500000000000062e-01
5.383750000000000480e-01
5.384999999999999787e-01
5.386250000000000204e-01
5.387499999999999512e-01
5.388749999999999929e-01
5.390000000000000346e-01
5.391249999999999654e-01
5.392500000000000071e-01
5.393750000000000488e-01
5.394999999999999796e-01
5.396250000000000213e-01
5.397499999999999520e-01
5.398749999999999938e-01
5.400000000000000355e-01
5.401249999999999662e-01
5.402500000000000080e-01
5.403750000000000497e-01
5.404999999999999805e-01
5.406250000000000222e-01
5.407499999999999529e-01
5.408749999999999947e-01
5.410000000000000364e-01
5.411249999999999671e-01
5.412500000000000089e-01
5.413750000000000506e-01
5.414999999999999813e-01
5.416250000000000231e-01
5.417499999999999538e-01
5.418749999999999956e-01
5.420000000000000373e-01
5.421249999999999680e-01
5.422500000000000098e-01
5.423750000000000515e-01
5.424999999999999822e-01
5.426250000000000240e-01
5.427499999999999547e-01
5.428749999999999964e-01
5.430000000000000382e-01
5.431249999999999689e-01
5.432500000000000107e-01
5.433750000000000524e-01
5.434999999999999831e-01
5.436250000000000249e-01
5.437499999999999556e-01
5.438749999999999973e-01
5.440000000000000391e-01
5.441249999999999698e-01
5.442500000000000115e-01
5.443750000000000533e-01
5.444999999999999840e-01
5.446250000000000258e-01
5.447499999999999565e-01
5.448749999999999982e-01
5.450000000000000400e-01
5.451249999999999707e-01
5.452500000000000124e-01
5.453749999999999432e-01
5.454999999999999849e-01
5.456250000000000266e-01
5.457499999999999574e-01
5.458749999999999991e-01
5.460000000000000409e-01
5.461249999999999716e-01
5.462500000000000133e-01
5.463750000000000551e-01
5.464999999999999858e-01
5.466250000000000275e-01
5.467499999999999583e-01
5.468750000000000000e-01
5.470000000000000417e-01
5.471249999999999725e-01
5.472500000000000142e-01
5.473749999999999449e-01
5.474999999999999867e-01
5.476250000000000284e-01
5.477499999999999591e-01
5.478750000000000009e-01
5.480000000000000426e-01
5.481249999999999734e-01
5.482500000000000151e-01
5.483750000000000568e-01
5.484999999999999876e-01
5.486250000000000293e-01
5.487499999999999600e-01
5.488750000000000018e-01
5.490000000000000435e-01
5.491249999999999742e-01
5.492500000000000160e-01
5.493749999999999467e-01
5.494999999999999885e-01
5.496250000000000302e-01
5.497499999999999609e-01
5.498750000000000027e-01
5.500000000000000444e-01
5.501250000000000862e-01
5.502500000000000169e-01
5.503750000000000586e-01
5.504999999999999893e-01
5.506250000000000311e-01
5.507500000000000728e-01
5.508750000000000036e-01
5.510000000000000453e-01
5.511250000000000870e-01
5.512500000000000178e-01
5.513750000000000595e-01
5.515000000000001013e-01
5.516250000000000320e-01
5.517500000000000737e-01
5.518750000000000044e-01
5.520000000000000462e-01
5.521250000000000879e-01
5.522500000000000187e-01
5.523750000000000604e-01
5.524999999999999911e-01
5.526250000000000329e-01
5.527500000000000746e-01
5.528750000000000053e-01
5.530000000000000471e-01
5.531250000000000888e-01
5.532500000000000195e-01
5.533750000000000613e-01
5.535000000000001030e-01
5.536250000000000338e-01
5.537500000000000755e-01
5.538750000000000062e-01
5.540000000000000480e-01
5.541250000000000897e-01
5.542500000000000204e-01
5.543750000000000622e-01
5.544999999999999929e-01
5.546250000000000346e-01
5.547500000000000764e-01
5.548750000000000071e-01
5.550000000000000488e-01
5.551250000000000906e-01
5.552500000000000213e-01
5.553750000000000631e-01
5.555000000000001048e-01
5.556250000000000355e-01
5.557500000000000773e-01
5.558750000000000080e-01
5.560000000000000497e-01
5.561250000000000915e-01
5.562500000000000222e-01
5.563750000000000639e-01
5.564999999999999947e-01
5.566250000000000364e-01
5.567500000000000782e-01
5.568750000000000089e-01
5.570000000000000506e-01
5.571250000000000924e-01
5.572500000000000231e-01
5.573750000000000648e-01
5.574999999999999956e-01
5.576250000000000373e-01
5.577500000000000790e-01
5.578750000000000098e-01
5.580000000000000515e-01
5.581250000000000933e-01
5.582500000000000240e-01
5.583750000000000657e-01
5.584999999999999964e-01
5.586250000000000382e-01
5.587500000000000799e-01
5.588750000000000107e-01
5.590000000000000524e-01
5.591250000000000941e-01
5.592500000000000249e-01
5.593750000000000666e-01
5.594999999999999973e-01
5.596250000000000391e-01
5.597500000000000808e-01
5.598750000000000115e-01
5.600000000000000533e-01
5.601250000000000950e-01
5.602500000000000258e-01
5.603750000000000675e-01
5.604999999999999982e-01
5.606250000000000400e-01
5.607500000000000817e-01
5.608750000000000124e-01
5.610000000000000542e-01
5.611250000000000959e-01
5.612500000000000266e-01
5.613750000000000684e-01
5.614999999999999991e-01
5.616250000000000409e-01
5.617500000000000826e-01
5.618750000000000133e-01
5.620000000000000551e-01
5.621250000000000968e-01
5.622500000000000275e-01
5.623750000000000693e-01
5.625000000000000000e-01
5.626250000000000417e-01
5.627500000000000835e-01
5.628750000000000142e-01
5.630000000000000560e-01
5.631250000000000977e-01
5.632500000000000284e-01
5.633750000000000702e-01
5.635000000000000009e-01
5.636250000000000426e-01
5.637500000000000844e-01
5.638750000000000151e-01
5.640000000000000568e-01
5.641249999999999876e-01
5.642500000000000293e-01
5.643750000000000711e-01
5.645000000000000018e-01
5.646250000000000435e-01
5.647500000000000853e-01
5.648750000000000160e-01
5.650000000000000577e-01
5.651250000000000995e-01
5.652500000000000302e-01
5.653750000000000719e-01
5.655000000000000027e-01
5.656250000000000444e-01
5.657500000000000862e-01
5.658750000000000169e-01
5.660000000000000586e-01
5.661249999999999893e-01
5.662500000000000311e-01
5.663750000000000728e-01
5.665000000000000036e-01
5.666250000000000453e-01
5.667500000000000870e-01
5.668750000000000178e-01
5.670000000000000595e-01
5.671250000000001013e-01
5.672500000000000320e-01
5.673750000000000737e-01
5.675000000000000044e-01
5.676250000000000462e-01
5.677500000000000879e-01
5.678750000000000187e-01
5.680000000000000604e-01
5.681249999999999911e-01
5.682500000000000329e-01
5.683750000000000746e-01
5.685000000000000053e-01
5.686250000000000471e-01
5.687500000000000888e-01
5.688750000000000195e-01
5.690000000000000613e-01
5.691250000000001030e-01
5.692500000000000338e-01
5.693750000000000755e-01
5.695000000000000062e-01
5.696250000000000480e-01
5.697500000000000897e-01
5.698750000000000204e-01
5.700000000000000622e-01
5.701249999999999929e-01
5.702500000000000346e-01
5.703750000000000764e-01
5.705000000000000071e-01
5.706250000000000488e-01
5.707500000000000906e-01
5.708750000000000213e-01
5.710000000000000631e-01
5.711249999999999938e-01
5.712500000000000355e-01
5.713750000000000773e-01
5.715000000000000080e-01
5.716250000000000497e-01
5.717500000000000915e-01
5.718750000000000222e-01
5.720000000000000639e-01
5.721249999999999947e-01
5.722500000000000364e-01
5.723750000000000782e-01
5.725000000000000089e-01
5.726250000000000506e-01
5.727500000000000924e-01
5.728750000000000231e-01
5.730000000000000648e-01
5.731249999999999956e-01
5.732500000000000373e-01
5.733750000000000790e-01
5.735000000000000098e-01
5.736250000000000515e-01
5.737500000000000933e-01
5.738750000000000240e-01
5.740000000000000657e-01
5.741249999999999964e-01
5.742500000000000382e-01
5.743750000000000799e-01
5.745000000000000107e-01
5.746250000000000524e-01
5.747500000000000941e-01
5.748750000000000249e-01
5.750000000000000666e-01
5.751249999999999973e-01
5.752500000000000391e-01
5.753750000000000808e-01
5.755000000000000115e-01
5.756250000000000533e-01
5.757500000000000950e-01
5.758750000000000258e-01
5.760000000000000675e-01
5.761249999999999982e-01
5.762500000000000400e-01
5.763750000000000817e-01
5.765000000000000124e-01
5.766250000000000542e-01
5.767500000000000959e-01
